11-02-1997 06:13:12.784,31793152,30-07-2024 18:02:58.491,-0.05,
11-02-1997 06:13:12.784,31793152,30-07-2024 18:02:58.491,-0.04,
11-02-1997 06:13:12.784,31793152,30-07-2024 18:02:58.491,-0.04,
11-02-1997 06:13:12.784,31793152,30-07-2024 18:02:58.491,-0.03,
11-02-1997 06:13:12.784,31793152,30-07-2024 18:02:58.491,-0.02,
11-02-1997 06:13:12.784,31793152,30-07-2024 18:02:58.491,-0.01,
11-02-1997 06:13:12.784,31793152,30-07-2024 18:02:58.491,0,
11-02-1997 06:13:12.784,31793152,30-07-2024 18:02:58.491,0.01,
11-02-1997 06:13:12.784,31793152,30-07-2024 18:02:58.491,0.02,
11-02-1997 06:13:12.784,31793152,30-07-2024 18:02:58.491,0.03,
11-02-1997 06:13:12.784,31793152,30-07-2024 18:02:58.491,0.04,
11-02-1997 06:13:12.784,31793152,30-07-2024 18:02:58.491,0.05,
11-02-1997 06:13:12.784,31793152,30-07-2024 18:02:58.491,0.06,
11-02-1997 06:13:12.784,31793152,30-07-2024 18:02:58.491,0.07,
11-02-1997 06:13:12.784,31793152,30-07-2024 18:02:58.491,0.08,
11-02-1997 06:13:12.784,31793152,30-07-2024 18:02:58.491,0.08,
11-02-1997 06:13:12.784,31793152,30-07-2024 18:02:58.491,0.09,
11-02-1997 06:13:12.784,31793152,30-07-2024 18:02:58.491,0.09,
11-02-1997 06:13:12.784,31793152,30-07-2024 18:02:58.491,0.09,
11-02-1997 06:13:12.784,31793152,30-07-2024 18:02:58.491,0.09,
11-02-1997 06:13:12.784,31793152,30-07-2024 18:02:58.491,0.09,
11-02-1997 06:13:12.784,31793152,30-07-2024 18:02:58.491,0.09,
11-02-1997 06:13:12.784,31793152,30-07-2024 18:02:58.491,0.09,
11-02-1997 06:13:12.784,31793152,30-07-2024 18:02:58.491,0.09,
11-02-1997 06:13:12.784,31793152,30-07-2024 18:02:58.491,0.09,
11-02-1997 06:13:12.784,31793152,30-07-2024 18:02:58.491,0.09,
11-02-1997 06:13:12.784,31793152,30-07-2024 18:02:58.491,0.08,
11-02-1997 06:13:12.784,31793152,30-07-2024 18:02:58.491,0.08,
11-02-1997 06:13:12.784,31793152,30-07-2024 18:02:58.491,0.07,
11-02-1997 06:13:12.784,31793152,30-07-2024 18:02:58.491,0.06,
11-02-1997 06:13:12.784,31793152,30-07-2024 18:02:58.491,0.05,
11-02-1997 06:13:12.784,31793152,30-07-2024 18:02:58.491,0.04,
11-02-1997 06:13:12.784,31793152,30-07-2024 18:02:58.491,0.03,
11-02-1997 06:13:12.784,31793152,30-07-2024 18:02:58.491,0.02,
11-02-1997 06:13:12.784,31793152,30-07-2024 18:02:58.491,0.02,
11-02-1997 06:13:12.784,31793152,30-07-2024 18:02:58.491,0.01,
11-02-1997 06:13:12.784,31793152,30-07-2024 18:02:58.491,-0,
11-02-1997 06:13:12.784,31793152,30-07-2024 18:02:58.491,-0.01,
11-02-1997 06:13:12.784,31793152,30-07-2024 18:02:58.491,-0.02,
11-02-1997 06:13:12.784,31793152,30-07-2024 18:02:58.491,-0.03,
11-02-1997 06:13:12.784,31793152,30-07-2024 18:02:58.491,-0.04,
11-02-1997 06:13:12.784,31793152,30-07-2024 18:02:58.491,-0.05,
11-02-1997 06:13:12.784,31793152,30-07-2024 18:02:58.491,-0.05,
11-02-1997 06:13:12.784,31793152,30-07-2024 18:02:58.491,-0.05,
11-02-1997 06:13:12.784,31793152,30-07-2024 18:02:58.491,-0.05,
11-02-1997 06:13:12.784,31793152,30-07-2024 18:02:58.491,-0.05,
11-02-1997 06:13:12.784,31793152,30-07-2024 18:02:58.491,-0.05,
11-02-1997 06:13:12.784,31793152,30-07-2024 18:02:58.491,-0.05,
11-02-1997 06:13:12.784,31793152,30-07-2024 18:02:58.491,-0.04,
11-02-1997 06:13:12.784,31793152,30-07-2024 18:02:58.491,-0.04,
11-02-1997 06:13:12.784,31793152,30-07-2024 18:02:58.491,-0.05,
11-02-1997 06:13:12.784,31793152,30-07-2024 18:02:58.491,-0.05,
11-02-1997 06:13:12.784,31793152,30-07-2024 18:02:58.491,-0.05,
11-02-1997 06:13:12.784,31793152,30-07-2024 18:02:58.491,-0.05,
11-02-1997 06:13:12.784,31793152,30-07-2024 18:02:58.491,-0.05,
11-02-1997 06:13:12.784,31793152,30-07-2024 18:02:58.491,-0.04,
11-02-1997 06:13:12.784,31793152,30-07-2024 18:02:58.491,-0.04,
11-02-1997 06:13:12.784,31793152,30-07-2024 18:02:58.491,-0.04,
11-02-1997 06:13:12.784,31793152,30-07-2024 18:02:58.491,-0.04,
11-02-1997 06:13:12.784,31793152,30-07-2024 18:02:58.491,-0.04,
11-02-1997 06:13:12.784,31793152,30-07-2024 18:02:58.491,-0.04,
11-02-1997 06:13:12.784,31793152,30-07-2024 18:02:58.491,-0.04,
11-02-1997 06:13:12.784,31793152,30-07-2024 18:02:58.491,-0.04,
11-02-1997 06:13:12.784,31793152,30-07-2024 18:02:58.491,-0.04,
11-02-1997 06:13:12.784,31793152,30-07-2024 18:02:58.491,-0.04,
11-02-1997 06:13:12.784,31793152,30-07-2024 18:02:58.491,-0.04,
11-02-1997 06:13:12.784,31793152,30-07-2024 18:02:58.491,-0.04,
11-02-1997 06:13:12.784,31793152,30-07-2024 18:02:58.491,-0.04,
11-02-1997 06:13:12.784,31793152,30-07-2024 18:02:58.491,-0.04,
11-02-1997 06:13:12.784,31793152,30-07-2024 18:02:58.491,-0.04,
11-02-1997 06:13:12.784,31793152,30-07-2024 18:02:58.491,-0.04,
11-02-1997 06:13:12.784,31793152,30-07-2024 18:02:58.491,-0.04,
11-02-1997 06:13:12.784,31793152,30-07-2024 18:02:58.491,-0.03,
11-02-1997 06:13:12.784,31793152,30-07-2024 18:02:58.491,-0.03,
11-02-1997 06:13:12.784,31793152,30-07-2024 18:02:58.491,-0.03,
11-02-1997 06:13:12.784,31793152,30-07-2024 18:02:58.491,-0.03,
11-02-1997 06:13:12.784,31793152,30-07-2024 18:02:58.491,-0.03,
11-02-1997 06:13:12.784,31793152,30-07-2024 18:02:58.491,-0.03,
11-02-1997 06:13:12.784,31793152,30-07-2024 18:02:58.491,-0.03,
11-02-1997 06:13:12.784,31793152,30-07-2024 18:02:58.491,-0.04,
11-02-1997 06:13:12.784,31793152,30-07-2024 18:02:58.491,-0.06,
11-02-1997 06:13:12.784,31793152,30-07-2024 18:02:58.491,-0.08,
11-02-1997 06:13:12.784,31793152,30-07-2024 18:02:58.491,-0.11,
11-02-1997 06:13:12.784,31793152,30-07-2024 18:02:58.491,-0.13,
11-02-1997 06:13:12.784,31793152,30-07-2024 18:02:58.491,-0.14,
11-02-1997 06:13:12.784,31793152,30-07-2024 18:02:58.491,-0.15,
11-02-1997 06:13:12.784,31793152,30-07-2024 18:02:58.491,-0.14,
11-02-1997 06:13:12.784,31793152,30-07-2024 18:02:58.491,-0.11,
11-02-1997 06:13:12.784,31793152,30-07-2024 18:02:58.491,-0.06,
11-02-1997 06:13:12.784,31793152,30-07-2024 18:02:58.491,-0,
11-02-1997 06:13:12.784,31793152,30-07-2024 18:02:58.491,0.08,
11-02-1997 06:13:12.784,31793152,30-07-2024 18:02:58.491,0.19,
11-02-1997 06:13:12.784,31793152,30-07-2024 18:02:58.491,0.29,
11-02-1997 06:13:12.784,31793152,30-07-2024 18:02:58.491,0.41,
11-02-1997 06:13:12.784,31793152,30-07-2024 18:02:58.491,0.51,
11-02-1997 06:13:12.784,31793152,30-07-2024 18:02:58.491,0.63,
11-02-1997 06:13:12.784,31793152,30-07-2024 18:02:58.491,0.74,
11-02-1997 06:13:12.784,31793152,30-07-2024 18:02:58.491,0.82,
11-02-1997 06:13:12.784,31793152,30-07-2024 18:02:58.491,0.86,
11-02-1997 06:13:12.784,31793152,30-07-2024 18:02:58.491,0.86,
11-02-1997 06:13:12.784,31793152,30-07-2024 18:02:58.491,0.81,
11-02-1997 06:13:12.784,31793152,30-07-2024 18:02:58.491,0.73,
11-02-1997 06:13:12.784,31793152,30-07-2024 18:02:58.491,0.63,
11-02-1997 06:13:12.784,31793152,30-07-2024 18:02:58.491,0.54,
11-02-1997 06:13:12.784,31793152,30-07-2024 18:02:58.491,0.45,
11-02-1997 06:13:12.784,31793152,30-07-2024 18:02:58.491,0.34,
11-02-1997 06:13:12.784,31793152,30-07-2024 18:02:58.491,0.21,
11-02-1997 06:13:12.784,31793152,30-07-2024 18:02:58.491,0.1,
11-02-1997 06:13:12.784,31793152,30-07-2024 18:02:58.491,0.01,
11-02-1997 06:13:12.784,31793152,30-07-2024 18:02:58.491,-0.05,
11-02-1997 06:13:12.784,31793152,30-07-2024 18:02:58.491,-0.09,
11-02-1997 06:13:12.784,31793152,30-07-2024 18:02:58.491,-0.12,
11-02-1997 06:13:12.784,31793152,30-07-2024 18:02:58.491,-0.14,
11-02-1997 06:13:12.784,31793152,30-07-2024 18:02:58.491,-0.15,
11-02-1997 06:13:12.784,31793152,30-07-2024 18:02:58.491,-0.15,
11-02-1997 06:13:12.784,31793152,30-07-2024 18:02:58.491,-0.15,
11-02-1997 06:13:12.784,31793152,30-07-2024 18:02:58.491,-0.13,
11-02-1997 06:13:12.784,31793152,30-07-2024 18:02:58.491,-0.11,
11-02-1997 06:13:12.784,31793152,30-07-2024 18:02:58.491,-0.1,
11-02-1997 06:13:12.784,31793152,30-07-2024 18:02:58.491,-0.09,
11-02-1997 06:13:12.784,31793152,30-07-2024 18:02:58.491,-0.09,
11-02-1997 06:13:12.784,31793152,30-07-2024 18:02:58.491,-0.08,
11-02-1997 06:13:12.784,31793152,30-07-2024 18:02:58.491,-0.08,
11-02-1997 06:13:12.784,31793152,30-07-2024 18:02:58.491,-0.08,
11-02-1997 06:13:12.784,31793152,30-07-2024 18:02:58.491,-0.08,
11-02-1997 06:13:12.784,31793152,30-07-2024 18:02:58.491,-0.08,
11-02-1997 06:13:12.784,31793152,30-07-2024 18:02:58.491,-0.08,
11-02-1997 06:13:12.784,31793152,30-07-2024 18:02:58.491,-0.08,
11-02-1997 06:13:13.040,31795200,30-07-2024 18:02:58.497,-0.08,
11-02-1997 06:13:13.040,31795200,30-07-2024 18:02:58.497,-0.08,
11-02-1997 06:13:13.040,31795200,30-07-2024 18:02:58.497,-0.08,
11-02-1997 06:13:13.040,31795200,30-07-2024 18:02:58.497,-0.08,
11-02-1997 06:13:13.040,31795200,30-07-2024 18:02:58.497,-0.07,
11-02-1997 06:13:13.040,31795200,30-07-2024 18:02:58.497,-0.07,
11-02-1997 06:13:13.040,31795200,30-07-2024 18:02:58.497,-0.07,
11-02-1997 06:13:13.040,31795200,30-07-2024 18:02:58.497,-0.07,
11-02-1997 06:13:13.040,31795200,30-07-2024 18:02:58.497,-0.07,
11-02-1997 06:13:13.040,31795200,30-07-2024 18:02:58.497,-0.07,
11-02-1997 06:13:13.040,31795200,30-07-2024 18:02:58.497,-0.07,
11-02-1997 06:13:13.040,31795200,30-07-2024 18:02:58.497,-0.07,
11-02-1997 06:13:13.040,31795200,30-07-2024 18:02:58.497,-0.07,
11-02-1997 06:13:13.040,31795200,30-07-2024 18:02:58.497,-0.07,
11-02-1997 06:13:13.040,31795200,30-07-2024 18:02:58.497,-0.07,
11-02-1997 06:13:13.040,31795200,30-07-2024 18:02:58.497,-0.07,
11-02-1997 06:13:13.040,31795200,30-07-2024 18:02:58.497,-0.07,
11-02-1997 06:13:13.040,31795200,30-07-2024 18:02:58.497,-0.06,
11-02-1997 06:13:13.040,31795200,30-07-2024 18:02:58.497,-0.06,
11-02-1997 06:13:13.040,31795200,30-07-2024 18:02:58.497,-0.06,
11-02-1997 06:13:13.040,31795200,30-07-2024 18:02:58.497,-0.06,
11-02-1997 06:13:13.040,31795200,30-07-2024 18:02:58.497,-0.06,
11-02-1997 06:13:13.040,31795200,30-07-2024 18:02:58.497,-0.07,
11-02-1997 06:13:13.040,31795200,30-07-2024 18:02:58.497,-0.06,
11-02-1997 06:13:13.040,31795200,30-07-2024 18:02:58.497,-0.06,
11-02-1997 06:13:13.040,31795200,30-07-2024 18:02:58.497,-0.06,
11-02-1997 06:13:13.040,31795200,30-07-2024 18:02:58.497,-0.06,
11-02-1997 06:13:13.040,31795200,30-07-2024 18:02:58.497,-0.06,
11-02-1997 06:13:13.040,31795200,30-07-2024 18:02:58.497,-0.05,
11-02-1997 06:13:13.040,31795200,30-07-2024 18:02:58.497,-0.05,
11-02-1997 06:13:13.040,31795200,30-07-2024 18:02:58.497,-0.05,
11-02-1997 06:13:13.040,31795200,30-07-2024 18:02:58.497,-0.06,
11-02-1997 06:13:13.040,31795200,30-07-2024 18:02:58.497,-0.06,
11-02-1997 06:13:13.040,31795200,30-07-2024 18:02:58.497,-0.06,
11-02-1997 06:13:13.040,31795200,30-07-2024 18:02:58.497,-0.06,
11-02-1997 06:13:13.040,31795200,30-07-2024 18:02:58.497,-0.06,
11-02-1997 06:13:13.040,31795200,30-07-2024 18:02:58.497,-0.05,
11-02-1997 06:13:13.040,31795200,30-07-2024 18:02:58.497,-0.05,
11-02-1997 06:13:13.040,31795200,30-07-2024 18:02:58.497,-0.05,
11-02-1997 06:13:13.040,31795200,30-07-2024 18:02:58.497,-0.05,
11-02-1997 06:13:13.040,31795200,30-07-2024 18:02:58.497,-0.05,
11-02-1997 06:13:13.040,31795200,30-07-2024 18:02:58.497,-0.05,
11-02-1997 06:13:13.040,31795200,30-07-2024 18:02:58.497,-0.06,
11-02-1997 06:13:13.040,31795200,30-07-2024 18:02:58.497,-0.05,
11-02-1997 06:13:13.040,31795200,30-07-2024 18:02:58.497,-0.05,
11-02-1997 06:13:13.040,31795200,30-07-2024 18:02:58.497,-0.05,
11-02-1997 06:13:13.040,31795200,30-07-2024 18:02:58.497,-0.05,
11-02-1997 06:13:13.040,31795200,30-07-2024 18:02:58.497,-0.05,
11-02-1997 06:13:13.040,31795200,30-07-2024 18:02:58.497,-0.05,
11-02-1997 06:13:13.040,31795200,30-07-2024 18:02:58.497,-0.05,
11-02-1997 06:13:13.040,31795200,30-07-2024 18:02:58.497,-0.05,
11-02-1997 06:13:13.040,31795200,30-07-2024 18:02:58.497,-0.05,
11-02-1997 06:13:13.040,31795200,30-07-2024 18:02:58.497,-0.04,
11-02-1997 06:13:13.040,31795200,30-07-2024 18:02:58.497,-0.04,
11-02-1997 06:13:13.040,31795200,30-07-2024 18:02:58.497,-0.03,
11-02-1997 06:13:13.040,31795200,30-07-2024 18:02:58.497,-0.02,
11-02-1997 06:13:13.040,31795200,30-07-2024 18:02:58.497,-0.02,
11-02-1997 06:13:13.040,31795200,30-07-2024 18:02:58.497,-0.01,
11-02-1997 06:13:13.040,31795200,30-07-2024 18:02:58.497,-0,
11-02-1997 06:13:13.040,31795200,30-07-2024 18:02:58.497,0.01,
11-02-1997 06:13:13.040,31795200,30-07-2024 18:02:58.497,0.02,
11-02-1997 06:13:13.040,31795200,30-07-2024 18:02:58.497,0.03,
11-02-1997 06:13:13.040,31795200,30-07-2024 18:02:58.497,0.04,
11-02-1997 06:13:13.040,31795200,30-07-2024 18:02:58.497,0.04,
11-02-1997 06:13:13.040,31795200,30-07-2024 18:02:58.497,0.05,
11-02-1997 06:13:13.040,31795200,30-07-2024 18:02:58.497,0.06,
11-02-1997 06:13:13.040,31795200,30-07-2024 18:02:58.497,0.07,
11-02-1997 06:13:13.040,31795200,30-07-2024 18:02:58.497,0.08,
11-02-1997 06:13:13.040,31795200,30-07-2024 18:02:58.497,0.09,
11-02-1997 06:13:13.040,31795200,30-07-2024 18:02:58.497,0.1,
11-02-1997 06:13:13.040,31795200,30-07-2024 18:02:58.497,0.11,
11-02-1997 06:13:13.040,31795200,30-07-2024 18:02:58.497,0.11,
11-02-1997 06:13:13.040,31795200,30-07-2024 18:02:58.497,0.12,
11-02-1997 06:13:13.040,31795200,30-07-2024 18:02:58.497,0.13,
11-02-1997 06:13:13.040,31795200,30-07-2024 18:02:58.497,0.13,
11-02-1997 06:13:13.040,31795200,30-07-2024 18:02:58.497,0.14,
11-02-1997 06:13:13.040,31795200,30-07-2024 18:02:58.497,0.15,
11-02-1997 06:13:13.040,31795200,30-07-2024 18:02:58.497,0.15,
11-02-1997 06:13:13.040,31795200,30-07-2024 18:02:58.497,0.16,
11-02-1997 06:13:13.040,31795200,30-07-2024 18:02:58.497,0.17,
11-02-1997 06:13:13.040,31795200,30-07-2024 18:02:58.497,0.17,
11-02-1997 06:13:13.040,31795200,30-07-2024 18:02:58.497,0.17,
11-02-1997 06:13:13.040,31795200,30-07-2024 18:02:58.497,0.18,
11-02-1997 06:13:13.040,31795200,30-07-2024 18:02:58.497,0.18,
11-02-1997 06:13:13.040,31795200,30-07-2024 18:02:58.497,0.18,
11-02-1997 06:13:13.040,31795200,30-07-2024 18:02:58.497,0.19,
11-02-1997 06:13:13.040,31795200,30-07-2024 18:02:58.497,0.19,
11-02-1997 06:13:13.040,31795200,30-07-2024 18:02:58.497,0.19,
11-02-1997 06:13:13.040,31795200,30-07-2024 18:02:58.497,0.19,
11-02-1997 06:13:13.040,31795200,30-07-2024 18:02:58.497,0.19,
11-02-1997 06:13:13.040,31795200,30-07-2024 18:02:58.497,0.19,
11-02-1997 06:13:13.040,31795200,30-07-2024 18:02:58.497,0.19,
11-02-1997 06:13:13.040,31795200,30-07-2024 18:02:58.497,0.19,
11-02-1997 06:13:13.040,31795200,30-07-2024 18:02:58.497,0.19,
11-02-1997 06:13:13.040,31795200,30-07-2024 18:02:58.497,0.19,
11-02-1997 06:13:13.040,31795200,30-07-2024 18:02:58.497,0.18,
11-02-1997 06:13:13.040,31795200,30-07-2024 18:02:58.497,0.18,
11-02-1997 06:13:13.040,31795200,30-07-2024 18:02:58.497,0.18,
11-02-1997 06:13:13.040,31795200,30-07-2024 18:02:58.497,0.17,
11-02-1997 06:13:13.040,31795200,30-07-2024 18:02:58.497,0.17,
11-02-1997 06:13:13.040,31795200,30-07-2024 18:02:58.497,0.16,
11-02-1997 06:13:13.040,31795200,30-07-2024 18:02:58.497,0.15,
11-02-1997 06:13:13.040,31795200,30-07-2024 18:02:58.497,0.15,
11-02-1997 06:13:13.040,31795200,30-07-2024 18:02:58.497,0.14,
11-02-1997 06:13:13.040,31795200,30-07-2024 18:02:58.497,0.13,
11-02-1997 06:13:13.040,31795200,30-07-2024 18:02:58.497,0.13,
11-02-1997 06:13:13.040,31795200,30-07-2024 18:02:58.497,0.12,
11-02-1997 06:13:13.040,31795200,30-07-2024 18:02:58.497,0.11,
11-02-1997 06:13:13.040,31795200,30-07-2024 18:02:58.497,0.11,
11-02-1997 06:13:13.040,31795200,30-07-2024 18:02:58.497,0.1,
11-02-1997 06:13:13.040,31795200,30-07-2024 18:02:58.497,0.09,
11-02-1997 06:13:13.040,31795200,30-07-2024 18:02:58.497,0.08,
11-02-1997 06:13:13.040,31795200,30-07-2024 18:02:58.497,0.07,
11-02-1997 06:13:13.040,31795200,30-07-2024 18:02:58.497,0.06,
11-02-1997 06:13:13.040,31795200,30-07-2024 18:02:58.497,0.05,
11-02-1997 06:13:13.040,31795200,30-07-2024 18:02:58.497,0.04,
11-02-1997 06:13:13.040,31795200,30-07-2024 18:02:58.497,0.03,
11-02-1997 06:13:13.040,31795200,30-07-2024 18:02:58.497,0.02,
11-02-1997 06:13:13.040,31795200,30-07-2024 18:02:58.497,0.01,
11-02-1997 06:13:13.040,31795200,30-07-2024 18:02:58.497,0,
11-02-1997 06:13:13.040,31795200,30-07-2024 18:02:58.497,-0.01,
11-02-1997 06:13:13.040,31795200,30-07-2024 18:02:58.497,-0.01,
11-02-1997 06:13:13.040,31795200,30-07-2024 18:02:58.497,-0.02,
11-02-1997 06:13:13.040,31795200,30-07-2024 18:02:58.497,-0.03,
11-02-1997 06:13:13.040,31795200,30-07-2024 18:02:58.497,-0.04,
11-02-1997 06:13:13.040,31795200,30-07-2024 18:02:58.497,-0.05,
11-02-1997 06:13:13.040,31795200,30-07-2024 18:02:58.497,-0.06,
11-02-1997 06:13:13.040,31795200,30-07-2024 18:02:58.497,-0.06,
11-02-1997 06:13:13.296,31797248,30-07-2024 18:02:58.500,-0.07,
11-02-1997 06:13:13.296,31797248,30-07-2024 18:02:58.500,-0.08,
11-02-1997 06:13:13.296,31797248,30-07-2024 18:02:58.500,-0.09,
11-02-1997 06:13:13.296,31797248,30-07-2024 18:02:58.500,-0.1,
11-02-1997 06:13:13.296,31797248,30-07-2024 18:02:58.500,-0.11,
11-02-1997 06:13:13.296,31797248,30-07-2024 18:02:58.500,-0.1,
11-02-1997 06:13:13.296,31797248,30-07-2024 18:02:58.500,-0.1,
11-02-1997 06:13:13.296,31797248,30-07-2024 18:02:58.500,-0.1,
11-02-1997 06:13:13.296,31797248,30-07-2024 18:02:58.500,-0.1,
11-02-1997 06:13:13.296,31797248,30-07-2024 18:02:58.500,-0.1,
11-02-1997 06:13:13.296,31797248,30-07-2024 18:02:58.500,-0.1,
11-02-1997 06:13:13.296,31797248,30-07-2024 18:02:58.500,-0.1,
11-02-1997 06:13:13.296,31797248,30-07-2024 18:02:58.500,-0.1,
11-02-1997 06:13:13.296,31797248,30-07-2024 18:02:58.500,-0.1,
11-02-1997 06:13:13.296,31797248,30-07-2024 18:02:58.500,-0.1,
11-02-1997 06:13:13.296,31797248,30-07-2024 18:02:58.500,-0.1,
11-02-1997 06:13:13.296,31797248,30-07-2024 18:02:58.500,-0.1,
11-02-1997 06:13:13.296,31797248,30-07-2024 18:02:58.500,-0.1,
11-02-1997 06:13:13.296,31797248,30-07-2024 18:02:58.500,-0.09,
11-02-1997 06:13:13.296,31797248,30-07-2024 18:02:58.500,-0.09,
11-02-1997 06:13:13.296,31797248,30-07-2024 18:02:58.500,-0.09,
11-02-1997 06:13:13.296,31797248,30-07-2024 18:02:58.500,-0.09,
11-02-1997 06:13:13.296,31797248,30-07-2024 18:02:58.500,-0.1,
11-02-1997 06:13:13.296,31797248,30-07-2024 18:02:58.500,-0.1,
11-02-1997 06:13:13.296,31797248,30-07-2024 18:02:58.500,-0.1,
11-02-1997 06:13:13.296,31797248,30-07-2024 18:02:58.500,-0.1,
11-02-1997 06:13:13.296,31797248,30-07-2024 18:02:58.500,-0.1,
11-02-1997 06:13:13.296,31797248,30-07-2024 18:02:58.500,-0.09,
11-02-1997 06:13:13.296,31797248,30-07-2024 18:02:58.500,-0.09,
11-02-1997 06:13:13.296,31797248,30-07-2024 18:02:58.500,-0.09,
11-02-1997 06:13:13.296,31797248,30-07-2024 18:02:58.500,-0.09,
11-02-1997 06:13:13.296,31797248,30-07-2024 18:02:58.500,-0.09,
11-02-1997 06:13:13.296,31797248,30-07-2024 18:02:58.500,-0.09,
11-02-1997 06:13:13.296,31797248,30-07-2024 18:02:58.500,-0.09,
11-02-1997 06:13:13.296,31797248,30-07-2024 18:02:58.500,-0.09,
11-02-1997 06:13:13.296,31797248,30-07-2024 18:02:58.500,-0.09,
11-02-1997 06:13:13.296,31797248,30-07-2024 18:02:58.500,-0.09,
11-02-1997 06:13:13.296,31797248,30-07-2024 18:02:58.500,-0.09,
11-02-1997 06:13:13.296,31797248,30-07-2024 18:02:58.500,-0.09,
11-02-1997 06:13:13.296,31797248,30-07-2024 18:02:58.500,-0.08,
11-02-1997 06:13:13.296,31797248,30-07-2024 18:02:58.500,-0.08,
11-02-1997 06:13:13.296,31797248,30-07-2024 18:02:58.500,-0.08,
11-02-1997 06:13:13.296,31797248,30-07-2024 18:02:58.500,-0.08,
11-02-1997 06:13:13.296,31797248,30-07-2024 18:02:58.500,-0.08,
11-02-1997 06:13:13.296,31797248,30-07-2024 18:02:58.500,-0.09,
11-02-1997 06:13:13.296,31797248,30-07-2024 18:02:58.500,-0.09,
11-02-1997 06:13:13.296,31797248,30-07-2024 18:02:58.500,-0.09,
11-02-1997 06:13:13.296,31797248,30-07-2024 18:02:58.500,-0.08,
11-02-1997 06:13:13.296,31797248,30-07-2024 18:02:58.500,-0.08,
11-02-1997 06:13:13.296,31797248,30-07-2024 18:02:58.500,-0.08,
11-02-1997 06:13:13.296,31797248,30-07-2024 18:02:58.500,-0.08,
11-02-1997 06:13:13.296,31797248,30-07-2024 18:02:58.500,-0.08,
11-02-1997 06:13:13.296,31797248,30-07-2024 18:02:58.500,-0.08,
11-02-1997 06:13:13.296,31797248,30-07-2024 18:02:58.500,-0.08,
11-02-1997 06:13:13.296,31797248,30-07-2024 18:02:58.500,-0.08,
11-02-1997 06:13:13.296,31797248,30-07-2024 18:02:58.500,-0.08,
11-02-1997 06:13:13.296,31797248,30-07-2024 18:02:58.500,-0.08,
11-02-1997 06:13:13.296,31797248,30-07-2024 18:02:58.500,-0.08,
11-02-1997 06:13:13.296,31797248,30-07-2024 18:02:58.500,-0.08,
11-02-1997 06:13:13.296,31797248,30-07-2024 18:02:58.500,-0.08,
11-02-1997 06:13:13.296,31797248,30-07-2024 18:02:58.500,-0.07,
11-02-1997 06:13:13.296,31797248,30-07-2024 18:02:58.500,-0.08,
11-02-1997 06:13:13.296,31797248,30-07-2024 18:02:58.500,-0.08,
11-02-1997 06:13:13.296,31797248,30-07-2024 18:02:58.500,-0.08,
11-02-1997 06:13:13.296,31797248,30-07-2024 18:02:58.500,-0.08,
11-02-1997 06:13:13.296,31797248,30-07-2024 18:02:58.500,-0.08,
11-02-1997 06:13:13.296,31797248,30-07-2024 18:02:58.500,-0.08,
11-02-1997 06:13:13.296,31797248,30-07-2024 18:02:58.500,-0.08,
11-02-1997 06:13:13.296,31797248,30-07-2024 18:02:58.500,-0.08,
11-02-1997 06:13:13.296,31797248,30-07-2024 18:02:58.500,-0.08,
11-02-1997 06:13:13.296,31797248,30-07-2024 18:02:58.500,-0.08,
11-02-1997 06:13:13.296,31797248,30-07-2024 18:02:58.500,-0.07,
11-02-1997 06:13:13.296,31797248,30-07-2024 18:02:58.500,-0.07,
11-02-1997 06:13:13.296,31797248,30-07-2024 18:02:58.500,-0.07,
11-02-1997 06:13:13.296,31797248,30-07-2024 18:02:58.500,-0.07,
11-02-1997 06:13:13.296,31797248,30-07-2024 18:02:58.500,-0.07,
11-02-1997 06:13:13.296,31797248,30-07-2024 18:02:58.500,-0.07,
11-02-1997 06:13:13.296,31797248,30-07-2024 18:02:58.500,-0.07,
11-02-1997 06:13:13.296,31797248,30-07-2024 18:02:58.500,-0.07,
11-02-1997 06:13:13.296,31797248,30-07-2024 18:02:58.500,-0.07,
11-02-1997 06:13:13.296,31797248,30-07-2024 18:02:58.500,-0.07,
11-02-1997 06:13:13.296,31797248,30-07-2024 18:02:58.500,-0.07,
11-02-1997 06:13:13.296,31797248,30-07-2024 18:02:58.500,-0.07,
11-02-1997 06:13:13.296,31797248,30-07-2024 18:02:58.500,-0.07,
11-02-1997 06:13:13.296,31797248,30-07-2024 18:02:58.500,-0.07,
11-02-1997 06:13:13.296,31797248,30-07-2024 18:02:58.500,-0.07,
11-02-1997 06:13:13.296,31797248,30-07-2024 18:02:58.500,-0.08,
11-02-1997 06:13:13.296,31797248,30-07-2024 18:02:58.500,-0.07,
11-02-1997 06:13:13.296,31797248,30-07-2024 18:02:58.500,-0.07,
11-02-1997 06:13:13.296,31797248,30-07-2024 18:02:58.500,-0.07,
11-02-1997 06:13:13.296,31797248,30-07-2024 18:02:58.500,-0.07,
11-02-1997 06:13:13.296,31797248,30-07-2024 18:02:58.500,-0.07,
11-02-1997 06:13:13.296,31797248,30-07-2024 18:02:58.500,-0.07,
11-02-1997 06:13:13.296,31797248,30-07-2024 18:02:58.500,-0.07,
11-02-1997 06:13:13.296,31797248,30-07-2024 18:02:58.500,-0.07,
11-02-1997 06:13:13.296,31797248,30-07-2024 18:02:58.500,-0.07,
11-02-1997 06:13:13.296,31797248,30-07-2024 18:02:58.500,-0.07,
11-02-1997 06:13:13.296,31797248,30-07-2024 18:02:58.500,-0.07,
11-02-1997 06:13:13.296,31797248,30-07-2024 18:02:58.500,-0.07,
11-02-1997 06:13:13.296,31797248,30-07-2024 18:02:58.500,-0.07,
11-02-1997 06:13:13.296,31797248,30-07-2024 18:02:58.500,-0.07,
11-02-1997 06:13:13.296,31797248,30-07-2024 18:02:58.500,-0.07,
11-02-1997 06:13:13.296,31797248,30-07-2024 18:02:58.500,-0.07,
11-02-1997 06:13:13.296,31797248,30-07-2024 18:02:58.500,-0.07,
11-02-1997 06:13:13.296,31797248,30-07-2024 18:02:58.500,-0.07,
11-02-1997 06:13:13.296,31797248,30-07-2024 18:02:58.500,-0.07,
11-02-1997 06:13:13.296,31797248,30-07-2024 18:02:58.500,-0.07,
11-02-1997 06:13:13.296,31797248,30-07-2024 18:02:58.500,-0.07,
11-02-1997 06:13:13.296,31797248,30-07-2024 18:02:58.500,-0.07,
11-02-1997 06:13:13.296,31797248,30-07-2024 18:02:58.500,-0.07,
11-02-1997 06:13:13.296,31797248,30-07-2024 18:02:58.500,-0.07,
11-02-1997 06:13:13.296,31797248,30-07-2024 18:02:58.500,-0.07,
11-02-1997 06:13:13.296,31797248,30-07-2024 18:02:58.500,-0.07,
11-02-1997 06:13:13.296,31797248,30-07-2024 18:02:58.500,-0.07,
11-02-1997 06:13:13.296,31797248,30-07-2024 18:02:58.500,-0.07,
11-02-1997 06:13:13.296,31797248,30-07-2024 18:02:58.500,-0.07,
11-02-1997 06:13:13.296,31797248,30-07-2024 18:02:58.500,-0.07,
11-02-1997 06:13:13.296,31797248,30-07-2024 18:02:58.500,-0.07,
11-02-1997 06:13:13.296,31797248,30-07-2024 18:02:58.500,-0.07,
11-02-1997 06:13:13.296,31797248,30-07-2024 18:02:58.500,-0.07,
11-02-1997 06:13:13.296,31797248,30-07-2024 18:02:58.500,-0.06,
11-02-1997 06:13:13.296,31797248,30-07-2024 18:02:58.500,-0.06,
11-02-1997 06:13:13.296,31797248,30-07-2024 18:02:58.500,-0.06,
11-02-1997 06:13:13.296,31797248,30-07-2024 18:02:58.500,-0.06,
11-02-1997 06:13:13.296,31797248,30-07-2024 18:02:58.500,-0.05,
11-02-1997 06:13:13.296,31797248,30-07-2024 18:02:58.500,-0.05,
11-02-1997 06:13:13.296,31797248,30-07-2024 18:02:58.500,-0.04,
11-02-1997 06:13:13.296,31797248,30-07-2024 18:02:58.500,-0.03,
11-02-1997 06:13:13.552,31799296,30-07-2024 18:02:59.525,-0.02,
11-02-1997 06:13:13.552,31799296,30-07-2024 18:02:59.525,-0.01,
11-02-1997 06:13:13.552,31799296,30-07-2024 18:02:59.525,0,
11-02-1997 06:13:13.552,31799296,30-07-2024 18:02:59.525,0.01,
11-02-1997 06:13:13.552,31799296,30-07-2024 18:02:59.525,0.02,
11-02-1997 06:13:13.552,31799296,30-07-2024 18:02:59.525,0.03,
11-02-1997 06:13:13.552,31799296,30-07-2024 18:02:59.525,0.04,
11-02-1997 06:13:13.552,31799296,30-07-2024 18:02:59.525,0.04,
11-02-1997 06:13:13.552,31799296,30-07-2024 18:02:59.525,0.05,
11-02-1997 06:13:13.552,31799296,30-07-2024 18:02:59.525,0.06,
11-02-1997 06:13:13.552,31799296,30-07-2024 18:02:59.525,0.06,
11-02-1997 06:13:13.552,31799296,30-07-2024 18:02:59.525,0.07,
11-02-1997 06:13:13.552,31799296,30-07-2024 18:02:59.525,0.07,
11-02-1997 06:13:13.552,31799296,30-07-2024 18:02:59.525,0.07,
11-02-1997 06:13:13.552,31799296,30-07-2024 18:02:59.525,0.07,
11-02-1997 06:13:13.552,31799296,30-07-2024 18:02:59.525,0.07,
11-02-1997 06:13:13.552,31799296,30-07-2024 18:02:59.525,0.07,
11-02-1997 06:13:13.552,31799296,30-07-2024 18:02:59.525,0.07,
11-02-1997 06:13:13.552,31799296,30-07-2024 18:02:59.525,0.07,
11-02-1997 06:13:13.552,31799296,30-07-2024 18:02:59.525,0.06,
11-02-1997 06:13:13.552,31799296,30-07-2024 18:02:59.525,0.05,
11-02-1997 06:13:13.552,31799296,30-07-2024 18:02:59.525,0.05,
11-02-1997 06:13:13.552,31799296,30-07-2024 18:02:59.525,0.04,
11-02-1997 06:13:13.552,31799296,30-07-2024 18:02:59.525,0.03,
11-02-1997 06:13:13.552,31799296,30-07-2024 18:02:59.525,0.02,
11-02-1997 06:13:13.552,31799296,30-07-2024 18:02:59.525,0.01,
11-02-1997 06:13:13.552,31799296,30-07-2024 18:02:59.525,0,
11-02-1997 06:13:13.552,31799296,30-07-2024 18:02:59.525,-0.01,
11-02-1997 06:13:13.552,31799296,30-07-2024 18:02:59.525,-0.02,
11-02-1997 06:13:13.552,31799296,30-07-2024 18:02:59.525,-0.03,
11-02-1997 06:13:13.552,31799296,30-07-2024 18:02:59.525,-0.03,
11-02-1997 06:13:13.552,31799296,30-07-2024 18:02:59.525,-0.04,
11-02-1997 06:13:13.552,31799296,30-07-2024 18:02:59.525,-0.05,
11-02-1997 06:13:13.552,31799296,30-07-2024 18:02:59.525,-0.06,
11-02-1997 06:13:13.552,31799296,30-07-2024 18:02:59.525,-0.07,
11-02-1997 06:13:13.552,31799296,30-07-2024 18:02:59.525,-0.08,
11-02-1997 06:13:13.552,31799296,30-07-2024 18:02:59.525,-0.08,
11-02-1997 06:13:13.552,31799296,30-07-2024 18:02:59.525,-0.08,
11-02-1997 06:13:13.552,31799296,30-07-2024 18:02:59.525,-0.08,
11-02-1997 06:13:13.552,31799296,30-07-2024 18:02:59.525,-0.08,
11-02-1997 06:13:13.552,31799296,30-07-2024 18:02:59.525,-0.08,
11-02-1997 06:13:13.552,31799296,30-07-2024 18:02:59.525,-0.08,
11-02-1997 06:13:13.552,31799296,30-07-2024 18:02:59.525,-0.08,
11-02-1997 06:13:13.552,31799296,30-07-2024 18:02:59.525,-0.08,
11-02-1997 06:13:13.552,31799296,30-07-2024 18:02:59.525,-0.08,
11-02-1997 06:13:13.552,31799296,30-07-2024 18:02:59.525,-0.08,
11-02-1997 06:13:13.552,31799296,30-07-2024 18:02:59.525,-0.08,
11-02-1997 06:13:13.552,31799296,30-07-2024 18:02:59.525,-0.08,
11-02-1997 06:13:13.552,31799296,30-07-2024 18:02:59.525,-0.08,
11-02-1997 06:13:13.552,31799296,30-07-2024 18:02:59.525,-0.08,
11-02-1997 06:13:13.552,31799296,30-07-2024 18:02:59.525,-0.08,
11-02-1997 06:13:13.552,31799296,30-07-2024 18:02:59.525,-0.08,
11-02-1997 06:13:13.552,31799296,30-07-2024 18:02:59.525,-0.07,
11-02-1997 06:13:13.552,31799296,30-07-2024 18:02:59.525,-0.07,
11-02-1997 06:13:13.552,31799296,30-07-2024 18:02:59.525,-0.07,
11-02-1997 06:13:13.552,31799296,30-07-2024 18:02:59.525,-0.08,
11-02-1997 06:13:13.552,31799296,30-07-2024 18:02:59.525,-0.08,
11-02-1997 06:13:13.552,31799296,30-07-2024 18:02:59.525,-0.08,
11-02-1997 06:13:13.552,31799296,30-07-2024 18:02:59.525,-0.08,
11-02-1997 06:13:13.552,31799296,30-07-2024 18:02:59.525,-0.08,
11-02-1997 06:13:13.552,31799296,30-07-2024 18:02:59.525,-0.07,
11-02-1997 06:13:13.552,31799296,30-07-2024 18:02:59.525,-0.07,
11-02-1997 06:13:13.552,31799296,30-07-2024 18:02:59.525,-0.07,
11-02-1997 06:13:13.552,31799296,30-07-2024 18:02:59.525,-0.07,
11-02-1997 06:13:13.552,31799296,30-07-2024 18:02:59.525,-0.07,
11-02-1997 06:13:13.552,31799296,30-07-2024 18:02:59.525,-0.07,
11-02-1997 06:13:13.552,31799296,30-07-2024 18:02:59.525,-0.07,
11-02-1997 06:13:13.552,31799296,30-07-2024 18:02:59.525,-0.08,
11-02-1997 06:13:13.552,31799296,30-07-2024 18:02:59.525,-0.08,
11-02-1997 06:13:13.552,31799296,30-07-2024 18:02:59.525,-0.07,
11-02-1997 06:13:13.552,31799296,30-07-2024 18:02:59.525,-0.07,
11-02-1997 06:13:13.552,31799296,30-07-2024 18:02:59.525,-0.08,
11-02-1997 06:13:13.552,31799296,30-07-2024 18:02:59.525,-0.08,
11-02-1997 06:13:13.552,31799296,30-07-2024 18:02:59.525,-0.09,
11-02-1997 06:13:13.552,31799296,30-07-2024 18:02:59.525,-0.11,
11-02-1997 06:13:13.552,31799296,30-07-2024 18:02:59.525,-0.13,
11-02-1997 06:13:13.552,31799296,30-07-2024 18:02:59.525,-0.15,
11-02-1997 06:13:13.552,31799296,30-07-2024 18:02:59.525,-0.17,
11-02-1997 06:13:13.552,31799296,30-07-2024 18:02:59.525,-0.19,
11-02-1997 06:13:13.552,31799296,30-07-2024 18:02:59.525,-0.2,
11-02-1997 06:13:13.552,31799296,30-07-2024 18:02:59.525,-0.19,
11-02-1997 06:13:13.552,31799296,30-07-2024 18:02:59.525,-0.15,
11-02-1997 06:13:13.552,31799296,30-07-2024 18:02:59.525,-0.1,
11-02-1997 06:13:13.552,31799296,30-07-2024 18:02:59.525,-0.03,
11-02-1997 06:13:13.552,31799296,30-07-2024 18:02:59.525,0.06,
11-02-1997 06:13:13.552,31799296,30-07-2024 18:02:59.525,0.15,
11-02-1997 06:13:13.552,31799296,30-07-2024 18:02:59.525,0.27,
11-02-1997 06:13:13.552,31799296,30-07-2024 18:02:59.525,0.39,
11-02-1997 06:13:13.552,31799296,30-07-2024 18:02:59.525,0.51,
11-02-1997 06:13:13.552,31799296,30-07-2024 18:02:59.525,0.63,
11-02-1997 06:13:13.552,31799296,30-07-2024 18:02:59.525,0.72,
11-02-1997 06:13:13.552,31799296,30-07-2024 18:02:59.525,0.79,
11-02-1997 06:13:13.552,31799296,30-07-2024 18:02:59.525,0.82,
11-02-1997 06:13:13.552,31799296,30-07-2024 18:02:59.525,0.8,
11-02-1997 06:13:13.552,31799296,30-07-2024 18:02:59.525,0.75,
11-02-1997 06:13:13.552,31799296,30-07-2024 18:02:59.525,0.68,
11-02-1997 06:13:13.552,31799296,30-07-2024 18:02:59.525,0.59,
11-02-1997 06:13:13.552,31799296,30-07-2024 18:02:59.525,0.47,
11-02-1997 06:13:13.552,31799296,30-07-2024 18:02:59.525,0.35,
11-02-1997 06:13:13.552,31799296,30-07-2024 18:02:59.525,0.23,
11-02-1997 06:13:13.552,31799296,30-07-2024 18:02:59.525,0.13,
11-02-1997 06:13:13.552,31799296,30-07-2024 18:02:59.525,0.04,
11-02-1997 06:13:13.552,31799296,30-07-2024 18:02:59.525,-0.04,
11-02-1997 06:13:13.552,31799296,30-07-2024 18:02:59.525,-0.1,
11-02-1997 06:13:13.552,31799296,30-07-2024 18:02:59.525,-0.14,
11-02-1997 06:13:13.552,31799296,30-07-2024 18:02:59.525,-0.17,
11-02-1997 06:13:13.552,31799296,30-07-2024 18:02:59.525,-0.18,
11-02-1997 06:13:13.552,31799296,30-07-2024 18:02:59.525,-0.19,
11-02-1997 06:13:13.552,31799296,30-07-2024 18:02:59.525,-0.18,
11-02-1997 06:13:13.552,31799296,30-07-2024 18:02:59.525,-0.17,
11-02-1997 06:13:13.552,31799296,30-07-2024 18:02:59.525,-0.16,
11-02-1997 06:13:13.552,31799296,30-07-2024 18:02:59.525,-0.14,
11-02-1997 06:13:13.552,31799296,30-07-2024 18:02:59.525,-0.13,
11-02-1997 06:13:13.552,31799296,30-07-2024 18:02:59.525,-0.12,
11-02-1997 06:13:13.552,31799296,30-07-2024 18:02:59.525,-0.12,
11-02-1997 06:13:13.552,31799296,30-07-2024 18:02:59.525,-0.12,
11-02-1997 06:13:13.552,31799296,30-07-2024 18:02:59.525,-0.12,
11-02-1997 06:13:13.552,31799296,30-07-2024 18:02:59.525,-0.11,
11-02-1997 06:13:13.552,31799296,30-07-2024 18:02:59.525,-0.11,
11-02-1997 06:13:13.552,31799296,30-07-2024 18:02:59.525,-0.11,
11-02-1997 06:13:13.552,31799296,30-07-2024 18:02:59.525,-0.11,
11-02-1997 06:13:13.552,31799296,30-07-2024 18:02:59.525,-0.11,
11-02-1997 06:13:13.552,31799296,30-07-2024 18:02:59.525,-0.11,
11-02-1997 06:13:13.552,31799296,30-07-2024 18:02:59.525,-0.11,
11-02-1997 06:13:13.552,31799296,30-07-2024 18:02:59.525,-0.11,
11-02-1997 06:13:13.552,31799296,30-07-2024 18:02:59.525,-0.11,
11-02-1997 06:13:13.552,31799296,30-07-2024 18:02:59.525,-0.11,
11-02-1997 06:13:13.552,31799296,30-07-2024 18:02:59.525,-0.11,
11-02-1997 06:13:13.808,31801344,30-07-2024 18:02:59.529,-0.11,
11-02-1997 06:13:13.808,31801344,30-07-2024 18:02:59.529,-0.11,
11-02-1997 06:13:13.808,31801344,30-07-2024 18:02:59.529,-0.11,
11-02-1997 06:13:13.808,31801344,30-07-2024 18:02:59.529,-0.11,
11-02-1997 06:13:13.808,31801344,30-07-2024 18:02:59.529,-0.1,
11-02-1997 06:13:13.808,31801344,30-07-2024 18:02:59.529,-0.1,
11-02-1997 06:13:13.808,31801344,30-07-2024 18:02:59.529,-0.11,
11-02-1997 06:13:13.808,31801344,30-07-2024 18:02:59.529,-0.11,
11-02-1997 06:13:13.808,31801344,30-07-2024 18:02:59.529,-0.11,
11-02-1997 06:13:13.808,31801344,30-07-2024 18:02:59.529,-0.11,
11-02-1997 06:13:13.808,31801344,30-07-2024 18:02:59.529,-0.1,
11-02-1997 06:13:13.808,31801344,30-07-2024 18:02:59.529,-0.1,
11-02-1997 06:13:13.808,31801344,30-07-2024 18:02:59.529,-0.1,
11-02-1997 06:13:13.808,31801344,30-07-2024 18:02:59.529,-0.1,
11-02-1997 06:13:13.808,31801344,30-07-2024 18:02:59.529,-0.1,
11-02-1997 06:13:13.808,31801344,30-07-2024 18:02:59.529,-0.11,
11-02-1997 06:13:13.808,31801344,30-07-2024 18:02:59.529,-0.11,
11-02-1997 06:13:13.808,31801344,30-07-2024 18:02:59.529,-0.1,
11-02-1997 06:13:13.808,31801344,30-07-2024 18:02:59.529,-0.1,
11-02-1997 06:13:13.808,31801344,30-07-2024 18:02:59.529,-0.1,
11-02-1997 06:13:13.808,31801344,30-07-2024 18:02:59.529,-0.1,
11-02-1997 06:13:13.808,31801344,30-07-2024 18:02:59.529,-0.1,
11-02-1997 06:13:13.808,31801344,30-07-2024 18:02:59.529,-0.1,
11-02-1997 06:13:13.808,31801344,30-07-2024 18:02:59.529,-0.1,
11-02-1997 06:13:13.808,31801344,30-07-2024 18:02:59.529,-0.1,
11-02-1997 06:13:13.808,31801344,30-07-2024 18:02:59.529,-0.1,
11-02-1997 06:13:13.808,31801344,30-07-2024 18:02:59.529,-0.1,
11-02-1997 06:13:13.808,31801344,30-07-2024 18:02:59.529,-0.1,
11-02-1997 06:13:13.808,31801344,30-07-2024 18:02:59.529,-0.1,
11-02-1997 06:13:13.808,31801344,30-07-2024 18:02:59.529,-0.1,
11-02-1997 06:13:13.808,31801344,30-07-2024 18:02:59.529,-0.1,
11-02-1997 06:13:13.808,31801344,30-07-2024 18:02:59.529,-0.1,
11-02-1997 06:13:13.808,31801344,30-07-2024 18:02:59.529,-0.09,
11-02-1997 06:13:13.808,31801344,30-07-2024 18:02:59.529,-0.09,
11-02-1997 06:13:13.808,31801344,30-07-2024 18:02:59.529,-0.09,
11-02-1997 06:13:13.808,31801344,30-07-2024 18:02:59.529,-0.09,
11-02-1997 06:13:13.808,31801344,30-07-2024 18:02:59.529,-0.09,
11-02-1997 06:13:13.808,31801344,30-07-2024 18:02:59.529,-0.09,
11-02-1997 06:13:13.808,31801344,30-07-2024 18:02:59.529,-0.09,
11-02-1997 06:13:13.808,31801344,30-07-2024 18:02:59.529,-0.09,
11-02-1997 06:13:13.808,31801344,30-07-2024 18:02:59.529,-0.09,
11-02-1997 06:13:13.808,31801344,30-07-2024 18:02:59.529,-0.09,
11-02-1997 06:13:13.808,31801344,30-07-2024 18:02:59.529,-0.09,
11-02-1997 06:13:13.808,31801344,30-07-2024 18:02:59.529,-0.09,
11-02-1997 06:13:13.808,31801344,30-07-2024 18:02:59.529,-0.08,
11-02-1997 06:13:13.808,31801344,30-07-2024 18:02:59.529,-0.07,
11-02-1997 06:13:13.808,31801344,30-07-2024 18:02:59.529,-0.07,
11-02-1997 06:13:13.808,31801344,30-07-2024 18:02:59.529,-0.06,
11-02-1997 06:13:13.808,31801344,30-07-2024 18:02:59.529,-0.06,
11-02-1997 06:13:13.808,31801344,30-07-2024 18:02:59.529,-0.05,
11-02-1997 06:13:13.808,31801344,30-07-2024 18:02:59.529,-0.04,
11-02-1997 06:13:13.808,31801344,30-07-2024 18:02:59.529,-0.03,
11-02-1997 06:13:13.808,31801344,30-07-2024 18:02:59.529,-0.02,
11-02-1997 06:13:13.808,31801344,30-07-2024 18:02:59.529,-0.01,
11-02-1997 06:13:13.808,31801344,30-07-2024 18:02:59.529,0,
11-02-1997 06:13:13.808,31801344,30-07-2024 18:02:59.529,0.01,
11-02-1997 06:13:13.808,31801344,30-07-2024 18:02:59.529,0.02,
11-02-1997 06:13:13.808,31801344,30-07-2024 18:02:59.529,0.02,
11-02-1997 06:13:13.808,31801344,30-07-2024 18:02:59.529,0.03,
11-02-1997 06:13:13.808,31801344,30-07-2024 18:02:59.529,0.04,
11-02-1997 06:13:13.808,31801344,30-07-2024 18:02:59.529,0.05,
11-02-1997 06:13:13.808,31801344,30-07-2024 18:02:59.529,0.06,
11-02-1997 06:13:13.808,31801344,30-07-2024 18:02:59.529,0.07,
11-02-1997 06:13:13.808,31801344,30-07-2024 18:02:59.529,0.08,
11-02-1997 06:13:13.808,31801344,30-07-2024 18:02:59.529,0.09,
11-02-1997 06:13:13.808,31801344,30-07-2024 18:02:59.529,0.09,
11-02-1997 06:13:13.808,31801344,30-07-2024 18:02:59.529,0.1,
11-02-1997 06:13:13.808,31801344,30-07-2024 18:02:59.529,0.11,
11-02-1997 06:13:13.808,31801344,30-07-2024 18:02:59.529,0.11,
11-02-1997 06:13:13.808,31801344,30-07-2024 18:02:59.529,0.12,
11-02-1997 06:13:13.808,31801344,30-07-2024 18:02:59.529,0.13,
11-02-1997 06:13:13.808,31801344,30-07-2024 18:02:59.529,0.13,
11-02-1997 06:13:13.808,31801344,30-07-2024 18:02:59.529,0.14,
11-02-1997 06:13:13.808,31801344,30-07-2024 18:02:59.529,0.14,
11-02-1997 06:13:13.808,31801344,30-07-2024 18:02:59.529,0.15,
11-02-1997 06:13:13.808,31801344,30-07-2024 18:02:59.529,0.15,
11-02-1997 06:13:13.808,31801344,30-07-2024 18:02:59.529,0.15,
11-02-1997 06:13:13.808,31801344,30-07-2024 18:02:59.529,0.15,
11-02-1997 06:13:13.808,31801344,30-07-2024 18:02:59.529,0.16,
11-02-1997 06:13:13.808,31801344,30-07-2024 18:02:59.529,0.16,
11-02-1997 06:13:13.808,31801344,30-07-2024 18:02:59.529,0.16,
11-02-1997 06:13:13.808,31801344,30-07-2024 18:02:59.529,0.16,
11-02-1997 06:13:13.808,31801344,30-07-2024 18:02:59.529,0.16,
11-02-1997 06:13:13.808,31801344,30-07-2024 18:02:59.529,0.16,
11-02-1997 06:13:13.808,31801344,30-07-2024 18:02:59.529,0.16,
11-02-1997 06:13:13.808,31801344,30-07-2024 18:02:59.529,0.16,
11-02-1997 06:13:13.808,31801344,30-07-2024 18:02:59.529,0.16,
11-02-1997 06:13:13.808,31801344,30-07-2024 18:02:59.529,0.15,
11-02-1997 06:13:13.808,31801344,30-07-2024 18:02:59.529,0.15,
11-02-1997 06:13:13.808,31801344,30-07-2024 18:02:59.529,0.14,
11-02-1997 06:13:13.808,31801344,30-07-2024 18:02:59.529,0.14,
11-02-1997 06:13:13.808,31801344,30-07-2024 18:02:59.529,0.14,
11-02-1997 06:13:13.808,31801344,30-07-2024 18:02:59.529,0.14,
11-02-1997 06:13:13.808,31801344,30-07-2024 18:02:59.529,0.13,
11-02-1997 06:13:13.808,31801344,30-07-2024 18:02:59.529,0.12,
11-02-1997 06:13:13.808,31801344,30-07-2024 18:02:59.529,0.12,
11-02-1997 06:13:13.808,31801344,30-07-2024 18:02:59.529,0.11,
11-02-1997 06:13:13.808,31801344,30-07-2024 18:02:59.529,0.1,
11-02-1997 06:13:13.808,31801344,30-07-2024 18:02:59.529,0.1,
11-02-1997 06:13:13.808,31801344,30-07-2024 18:02:59.529,0.09,
11-02-1997 06:13:13.808,31801344,30-07-2024 18:02:59.529,0.08,
11-02-1997 06:13:13.808,31801344,30-07-2024 18:02:59.529,0.07,
11-02-1997 06:13:13.808,31801344,30-07-2024 18:02:59.529,0.07,
11-02-1997 06:13:13.808,31801344,30-07-2024 18:02:59.529,0.06,
11-02-1997 06:13:13.808,31801344,30-07-2024 18:02:59.529,0.05,
11-02-1997 06:13:13.808,31801344,30-07-2024 18:02:59.529,0.04,
11-02-1997 06:13:13.808,31801344,30-07-2024 18:02:59.529,0.03,
11-02-1997 06:13:13.808,31801344,30-07-2024 18:02:59.529,0.02,
11-02-1997 06:13:13.808,31801344,30-07-2024 18:02:59.529,0.01,
11-02-1997 06:13:13.808,31801344,30-07-2024 18:02:59.529,-0.01,
11-02-1997 06:13:13.808,31801344,30-07-2024 18:02:59.529,-0.02,
11-02-1997 06:13:13.808,31801344,30-07-2024 18:02:59.529,-0.02,
11-02-1997 06:13:13.808,31801344,30-07-2024 18:02:59.529,-0.03,
11-02-1997 06:13:13.808,31801344,30-07-2024 18:02:59.529,-0.04,
11-02-1997 06:13:13.808,31801344,30-07-2024 18:02:59.529,-0.05,
11-02-1997 06:13:13.808,31801344,30-07-2024 18:02:59.529,-0.06,
11-02-1997 06:13:13.808,31801344,30-07-2024 18:02:59.529,-0.07,
11-02-1997 06:13:13.808,31801344,30-07-2024 18:02:59.529,-0.08,
11-02-1997 06:13:13.808,31801344,30-07-2024 18:02:59.529,-0.09,
11-02-1997 06:13:13.808,31801344,30-07-2024 18:02:59.529,-0.1,
11-02-1997 06:13:13.808,31801344,30-07-2024 18:02:59.529,-0.1,
11-02-1997 06:13:13.808,31801344,30-07-2024 18:02:59.529,-0.11,
11-02-1997 06:13:13.808,31801344,30-07-2024 18:02:59.529,-0.11,
11-02-1997 06:13:13.808,31801344,30-07-2024 18:02:59.529,-0.12,
11-02-1997 06:13:13.808,31801344,30-07-2024 18:02:59.529,-0.12,
11-02-1997 06:13:13.808,31801344,30-07-2024 18:02:59.529,-0.12,
11-02-1997 06:13:13.808,31801344,30-07-2024 18:02:59.529,-0.12,
11-02-1997 06:13:13.808,31801344,30-07-2024 18:02:59.529,-0.12,
11-02-1997 06:13:14.064,31803392,30-07-2024 18:02:59.531,-0.12,
11-02-1997 06:13:14.064,31803392,30-07-2024 18:02:59.531,-0.12,
11-02-1997 06:13:14.064,31803392,30-07-2024 18:02:59.531,-0.12,
11-02-1997 06:13:14.064,31803392,30-07-2024 18:02:59.531,-0.12,
11-02-1997 06:13:14.064,31803392,30-07-2024 18:02:59.531,-0.11,
11-02-1997 06:13:14.064,31803392,30-07-2024 18:02:59.531,-0.11,
11-02-1997 06:13:14.064,31803392,30-07-2024 18:02:59.531,-0.12,
11-02-1997 06:13:14.064,31803392,30-07-2024 18:02:59.531,-0.12,
11-02-1997 06:13:14.064,31803392,30-07-2024 18:02:59.531,-0.12,
11-02-1997 06:13:14.064,31803392,30-07-2024 18:02:59.531,-0.12,
11-02-1997 06:13:14.064,31803392,30-07-2024 18:02:59.531,-0.11,
11-02-1997 06:13:14.064,31803392,30-07-2024 18:02:59.531,-0.11,
11-02-1997 06:13:14.064,31803392,30-07-2024 18:02:59.531,-0.11,
11-02-1997 06:13:14.064,31803392,30-07-2024 18:02:59.531,-0.11,
11-02-1997 06:13:14.064,31803392,30-07-2024 18:02:59.531,-0.11,
11-02-1997 06:13:14.064,31803392,30-07-2024 18:02:59.531,-0.11,
11-02-1997 06:13:14.064,31803392,30-07-2024 18:02:59.531,-0.11,
11-02-1997 06:13:14.064,31803392,30-07-2024 18:02:59.531,-0.11,
11-02-1997 06:13:14.064,31803392,30-07-2024 18:02:59.531,-0.11,
11-02-1997 06:13:14.064,31803392,30-07-2024 18:02:59.531,-0.11,
11-02-1997 06:13:14.064,31803392,30-07-2024 18:02:59.531,-0.11,
11-02-1997 06:13:14.064,31803392,30-07-2024 18:02:59.531,-0.11,
11-02-1997 06:13:14.064,31803392,30-07-2024 18:02:59.531,-0.11,
11-02-1997 06:13:14.064,31803392,30-07-2024 18:02:59.531,-0.11,
11-02-1997 06:13:14.064,31803392,30-07-2024 18:02:59.531,-0.11,
11-02-1997 06:13:14.064,31803392,30-07-2024 18:02:59.531,-0.11,
11-02-1997 06:13:14.064,31803392,30-07-2024 18:02:59.531,-0.11,
11-02-1997 06:13:14.064,31803392,30-07-2024 18:02:59.531,-0.1,
11-02-1997 06:13:14.064,31803392,30-07-2024 18:02:59.531,-0.11,
11-02-1997 06:13:14.064,31803392,30-07-2024 18:02:59.531,-0.1,
11-02-1997 06:13:14.064,31803392,30-07-2024 18:02:59.531,-0.1,
11-02-1997 06:13:14.064,31803392,30-07-2024 18:02:59.531,-0.11,
11-02-1997 06:13:14.064,31803392,30-07-2024 18:02:59.531,-0.11,
11-02-1997 06:13:14.064,31803392,30-07-2024 18:02:59.531,-0.1,
11-02-1997 06:13:14.064,31803392,30-07-2024 18:02:59.531,-0.1,
11-02-1997 06:13:14.064,31803392,30-07-2024 18:02:59.531,-0.1,
11-02-1997 06:13:14.064,31803392,30-07-2024 18:02:59.531,-0.1,
11-02-1997 06:13:14.064,31803392,30-07-2024 18:02:59.531,-0.1,
11-02-1997 06:13:14.064,31803392,30-07-2024 18:02:59.531,-0.1,
11-02-1997 06:13:14.064,31803392,30-07-2024 18:02:59.531,-0.1,
11-02-1997 06:13:14.064,31803392,30-07-2024 18:02:59.531,-0.1,
11-02-1997 06:13:14.064,31803392,30-07-2024 18:02:59.531,-0.1,
11-02-1997 06:13:14.064,31803392,30-07-2024 18:02:59.531,-0.1,
11-02-1997 06:13:14.064,31803392,30-07-2024 18:02:59.531,-0.1,
11-02-1997 06:13:14.064,31803392,30-07-2024 18:02:59.531,-0.09,
11-02-1997 06:13:14.064,31803392,30-07-2024 18:02:59.531,-0.09,
11-02-1997 06:13:14.064,31803392,30-07-2024 18:02:59.531,-0.09,
11-02-1997 06:13:14.064,31803392,30-07-2024 18:02:59.531,-0.09,
11-02-1997 06:13:14.064,31803392,30-07-2024 18:02:59.531,-0.09,
11-02-1997 06:13:14.064,31803392,30-07-2024 18:02:59.531,-0.09,
11-02-1997 06:13:14.064,31803392,30-07-2024 18:02:59.531,-0.09,
11-02-1997 06:13:14.064,31803392,30-07-2024 18:02:59.531,-0.09,
11-02-1997 06:13:14.064,31803392,30-07-2024 18:02:59.531,-0.09,
11-02-1997 06:13:14.064,31803392,30-07-2024 18:02:59.531,-0.09,
11-02-1997 06:13:14.064,31803392,30-07-2024 18:02:59.531,-0.09,
11-02-1997 06:13:14.064,31803392,30-07-2024 18:02:59.531,-0.09,
11-02-1997 06:13:14.064,31803392,30-07-2024 18:02:59.531,-0.09,
11-02-1997 06:13:14.064,31803392,30-07-2024 18:02:59.531,-0.09,
11-02-1997 06:13:14.064,31803392,30-07-2024 18:02:59.531,-0.09,
11-02-1997 06:13:14.064,31803392,30-07-2024 18:02:59.531,-0.09,
11-02-1997 06:13:14.064,31803392,30-07-2024 18:02:59.531,-0.09,
11-02-1997 06:13:14.064,31803392,30-07-2024 18:02:59.531,-0.09,
11-02-1997 06:13:14.064,31803392,30-07-2024 18:02:59.531,-0.09,
11-02-1997 06:13:14.064,31803392,30-07-2024 18:02:59.531,-0.09,
11-02-1997 06:13:14.064,31803392,30-07-2024 18:02:59.531,-0.09,
11-02-1997 06:13:14.064,31803392,30-07-2024 18:02:59.531,-0.09,
11-02-1997 06:13:14.064,31803392,30-07-2024 18:02:59.531,-0.08,
11-02-1997 06:13:14.064,31803392,30-07-2024 18:02:59.531,-0.08,
11-02-1997 06:13:14.064,31803392,30-07-2024 18:02:59.531,-0.08,
11-02-1997 06:13:14.064,31803392,30-07-2024 18:02:59.531,-0.08,
11-02-1997 06:13:14.064,31803392,30-07-2024 18:02:59.531,-0.08,
11-02-1997 06:13:14.064,31803392,30-07-2024 18:02:59.531,-0.08,
11-02-1997 06:13:14.064,31803392,30-07-2024 18:02:59.531,-0.08,
11-02-1997 06:13:14.064,31803392,30-07-2024 18:02:59.531,-0.07,
11-02-1997 06:13:14.064,31803392,30-07-2024 18:02:59.531,-0.08,
11-02-1997 06:13:14.064,31803392,30-07-2024 18:02:59.531,-0.07,
11-02-1997 06:13:14.064,31803392,30-07-2024 18:02:59.531,-0.07,
11-02-1997 06:13:14.064,31803392,30-07-2024 18:02:59.531,-0.08,
11-02-1997 06:13:14.064,31803392,30-07-2024 18:02:59.531,-0.08,
11-02-1997 06:13:14.064,31803392,30-07-2024 18:02:59.531,-0.08,
11-02-1997 06:13:14.064,31803392,30-07-2024 18:02:59.531,-0.08,
11-02-1997 06:13:14.064,31803392,30-07-2024 18:02:59.531,-0.08,
11-02-1997 06:13:14.064,31803392,30-07-2024 18:02:59.531,-0.08,
11-02-1997 06:13:14.064,31803392,30-07-2024 18:02:59.531,-0.08,
11-02-1997 06:13:14.064,31803392,30-07-2024 18:02:59.531,-0.07,
11-02-1997 06:13:14.064,31803392,30-07-2024 18:02:59.531,-0.07,
11-02-1997 06:13:14.064,31803392,30-07-2024 18:02:59.531,-0.07,
11-02-1997 06:13:14.064,31803392,30-07-2024 18:02:59.531,-0.07,
11-02-1997 06:13:14.064,31803392,30-07-2024 18:02:59.531,-0.07,
11-02-1997 06:13:14.064,31803392,30-07-2024 18:02:59.531,-0.07,
11-02-1997 06:13:14.064,31803392,30-07-2024 18:02:59.531,-0.08,
11-02-1997 06:13:14.064,31803392,30-07-2024 18:02:59.531,-0.08,
11-02-1997 06:13:14.064,31803392,30-07-2024 18:02:59.531,-0.08,
11-02-1997 06:13:14.064,31803392,30-07-2024 18:02:59.531,-0.08,
11-02-1997 06:13:14.064,31803392,30-07-2024 18:02:59.531,-0.07,
11-02-1997 06:13:14.064,31803392,30-07-2024 18:02:59.531,-0.07,
11-02-1997 06:13:14.064,31803392,30-07-2024 18:02:59.531,-0.07,
11-02-1997 06:13:14.064,31803392,30-07-2024 18:02:59.531,-0.06,
11-02-1997 06:13:14.064,31803392,30-07-2024 18:02:59.531,-0.07,
11-02-1997 06:13:14.064,31803392,30-07-2024 18:02:59.531,-0.07,
11-02-1997 06:13:14.064,31803392,30-07-2024 18:02:59.531,-0.06,
11-02-1997 06:13:14.064,31803392,30-07-2024 18:02:59.531,-0.07,
11-02-1997 06:13:14.064,31803392,30-07-2024 18:02:59.531,-0.07,
11-02-1997 06:13:14.064,31803392,30-07-2024 18:02:59.531,-0.07,
11-02-1997 06:13:14.064,31803392,30-07-2024 18:02:59.531,-0.07,
11-02-1997 06:13:14.064,31803392,30-07-2024 18:02:59.531,-0.07,
11-02-1997 06:13:14.064,31803392,30-07-2024 18:02:59.531,-0.07,
11-02-1997 06:13:14.064,31803392,30-07-2024 18:02:59.531,-0.07,
11-02-1997 06:13:14.064,31803392,30-07-2024 18:02:59.531,-0.07,
11-02-1997 06:13:14.064,31803392,30-07-2024 18:02:59.531,-0.07,
11-02-1997 06:13:14.064,31803392,30-07-2024 18:02:59.531,-0.07,
11-02-1997 06:13:14.064,31803392,30-07-2024 18:02:59.531,-0.07,
11-02-1997 06:13:14.064,31803392,30-07-2024 18:02:59.531,-0.06,
11-02-1997 06:13:14.064,31803392,30-07-2024 18:02:59.531,-0.06,
11-02-1997 06:13:14.064,31803392,30-07-2024 18:02:59.531,-0.06,
11-02-1997 06:13:14.064,31803392,30-07-2024 18:02:59.531,-0.06,
11-02-1997 06:13:14.064,31803392,30-07-2024 18:02:59.531,-0.06,
11-02-1997 06:13:14.064,31803392,30-07-2024 18:02:59.531,-0.06,
11-02-1997 06:13:14.064,31803392,30-07-2024 18:02:59.531,-0.05,
11-02-1997 06:13:14.064,31803392,30-07-2024 18:02:59.531,-0.05,
11-02-1997 06:13:14.064,31803392,30-07-2024 18:02:59.531,-0.04,
11-02-1997 06:13:14.064,31803392,30-07-2024 18:02:59.531,-0.03,
11-02-1997 06:13:14.064,31803392,30-07-2024 18:02:59.531,-0.03,
11-02-1997 06:13:14.064,31803392,30-07-2024 18:02:59.531,-0.01,
11-02-1997 06:13:14.064,31803392,30-07-2024 18:02:59.531,-0,
11-02-1997 06:13:14.064,31803392,30-07-2024 18:02:59.531,0,
11-02-1997 06:13:14.064,31803392,30-07-2024 18:02:59.531,0.01,
11-02-1997 06:13:14.064,31803392,30-07-2024 18:02:59.531,0.02,
11-02-1997 06:13:14.320,31805440,30-07-2024 18:02:59.534,0.03,
11-02-1997 06:13:14.320,31805440,30-07-2024 18:02:59.534,0.04,
11-02-1997 06:13:14.320,31805440,30-07-2024 18:02:59.534,0.05,
11-02-1997 06:13:14.320,31805440,30-07-2024 18:02:59.534,0.05,
11-02-1997 06:13:14.320,31805440,30-07-2024 18:02:59.534,0.06,
11-02-1997 06:13:14.320,31805440,30-07-2024 18:02:59.534,0.07,
11-02-1997 06:13:14.320,31805440,30-07-2024 18:02:59.534,0.07,
11-02-1997 06:13:14.320,31805440,30-07-2024 18:02:59.534,0.07,
11-02-1997 06:13:14.320,31805440,30-07-2024 18:02:59.534,0.08,
11-02-1997 06:13:14.320,31805440,30-07-2024 18:02:59.534,0.08,
11-02-1997 06:13:14.320,31805440,30-07-2024 18:02:59.534,0.07,
11-02-1997 06:13:14.320,31805440,30-07-2024 18:02:59.534,0.08,
11-02-1997 06:13:14.320,31805440,30-07-2024 18:02:59.534,0.08,
11-02-1997 06:13:14.320,31805440,30-07-2024 18:02:59.534,0.07,
11-02-1997 06:13:14.320,31805440,30-07-2024 18:02:59.534,0.07,
11-02-1997 06:13:14.320,31805440,30-07-2024 18:02:59.534,0.06,
11-02-1997 06:13:14.320,31805440,30-07-2024 18:02:59.534,0.05,
11-02-1997 06:13:14.320,31805440,30-07-2024 18:02:59.534,0.05,
11-02-1997 06:13:14.320,31805440,30-07-2024 18:02:59.534,0.04,
11-02-1997 06:13:14.320,31805440,30-07-2024 18:02:59.534,0.03,
11-02-1997 06:13:14.320,31805440,30-07-2024 18:02:59.534,0.02,
11-02-1997 06:13:14.320,31805440,30-07-2024 18:02:59.534,0.01,
11-02-1997 06:13:14.320,31805440,30-07-2024 18:02:59.534,0,
11-02-1997 06:13:14.320,31805440,30-07-2024 18:02:59.534,-0.01,
11-02-1997 06:13:14.320,31805440,30-07-2024 18:02:59.534,-0.02,
11-02-1997 06:13:14.320,31805440,30-07-2024 18:02:59.534,-0.03,
11-02-1997 06:13:14.320,31805440,30-07-2024 18:02:59.534,-0.04,
11-02-1997 06:13:14.320,31805440,30-07-2024 18:02:59.534,-0.05,
11-02-1997 06:13:14.320,31805440,30-07-2024 18:02:59.534,-0.06,
11-02-1997 06:13:14.320,31805440,30-07-2024 18:02:59.534,-0.06,
11-02-1997 06:13:14.320,31805440,30-07-2024 18:02:59.534,-0.06,
11-02-1997 06:13:14.320,31805440,30-07-2024 18:02:59.534,-0.07,
11-02-1997 06:13:14.320,31805440,30-07-2024 18:02:59.534,-0.07,
11-02-1997 06:13:14.320,31805440,30-07-2024 18:02:59.534,-0.07,
11-02-1997 06:13:14.320,31805440,30-07-2024 18:02:59.534,-0.07,
11-02-1997 06:13:14.320,31805440,30-07-2024 18:02:59.534,-0.07,
11-02-1997 06:13:14.320,31805440,30-07-2024 18:02:59.534,-0.06,
11-02-1997 06:13:14.320,31805440,30-07-2024 18:02:59.534,-0.06,
11-02-1997 06:13:14.320,31805440,30-07-2024 18:02:59.534,-0.06,
11-02-1997 06:13:14.320,31805440,30-07-2024 18:02:59.534,-0.06,
11-02-1997 06:13:14.320,31805440,30-07-2024 18:02:59.534,-0.07,
11-02-1997 06:13:14.320,31805440,30-07-2024 18:02:59.534,-0.07,
11-02-1997 06:13:14.320,31805440,30-07-2024 18:02:59.534,-0.07,
11-02-1997 06:13:14.320,31805440,30-07-2024 18:02:59.534,-0.07,
11-02-1997 06:13:14.320,31805440,30-07-2024 18:02:59.534,-0.07,
11-02-1997 06:13:14.320,31805440,30-07-2024 18:02:59.534,-0.06,
11-02-1997 06:13:14.320,31805440,30-07-2024 18:02:59.534,-0.06,
11-02-1997 06:13:14.320,31805440,30-07-2024 18:02:59.534,-0.06,
11-02-1997 06:13:14.320,31805440,30-07-2024 18:02:59.534,-0.06,
11-02-1997 06:13:14.320,31805440,30-07-2024 18:02:59.534,-0.06,
11-02-1997 06:13:14.320,31805440,30-07-2024 18:02:59.534,-0.06,
11-02-1997 06:13:14.320,31805440,30-07-2024 18:02:59.534,-0.06,
11-02-1997 06:13:14.320,31805440,30-07-2024 18:02:59.534,-0.06,
11-02-1997 06:13:14.320,31805440,30-07-2024 18:02:59.534,-0.06,
11-02-1997 06:13:14.320,31805440,30-07-2024 18:02:59.534,-0.06,
11-02-1997 06:13:14.320,31805440,30-07-2024 18:02:59.534,-0.06,
11-02-1997 06:13:14.320,31805440,30-07-2024 18:02:59.534,-0.06,
11-02-1997 06:13:14.320,31805440,30-07-2024 18:02:59.534,-0.06,
11-02-1997 06:13:14.320,31805440,30-07-2024 18:02:59.534,-0.06,
11-02-1997 06:13:14.320,31805440,30-07-2024 18:02:59.534,-0.06,
11-02-1997 06:13:14.320,31805440,30-07-2024 18:02:59.534,-0.06,
11-02-1997 06:13:14.320,31805440,30-07-2024 18:02:59.534,-0.06,
11-02-1997 06:13:14.320,31805440,30-07-2024 18:02:59.534,-0.06,
11-02-1997 06:13:14.320,31805440,30-07-2024 18:02:59.534,-0.06,
11-02-1997 06:13:14.320,31805440,30-07-2024 18:02:59.534,-0.06,
11-02-1997 06:13:14.320,31805440,30-07-2024 18:02:59.534,-0.05,
11-02-1997 06:13:14.320,31805440,30-07-2024 18:02:59.534,-0.05,
11-02-1997 06:13:14.320,31805440,30-07-2024 18:02:59.534,-0.06,
11-02-1997 06:13:14.320,31805440,30-07-2024 18:02:59.534,-0.07,
11-02-1997 06:13:14.320,31805440,30-07-2024 18:02:59.534,-0.09,
11-02-1997 06:13:14.320,31805440,30-07-2024 18:02:59.534,-0.11,
11-02-1997 06:13:14.320,31805440,30-07-2024 18:02:59.534,-0.13,
11-02-1997 06:13:14.320,31805440,30-07-2024 18:02:59.534,-0.15,
11-02-1997 06:13:14.320,31805440,30-07-2024 18:02:59.534,-0.17,
11-02-1997 06:13:14.320,31805440,30-07-2024 18:02:59.534,-0.17,
11-02-1997 06:13:14.320,31805440,30-07-2024 18:02:59.534,-0.16,
11-02-1997 06:13:14.320,31805440,30-07-2024 18:02:59.534,-0.13,
11-02-1997 06:13:14.320,31805440,30-07-2024 18:02:59.534,-0.08,
11-02-1997 06:13:14.320,31805440,30-07-2024 18:02:59.534,0,
11-02-1997 06:13:14.320,31805440,30-07-2024 18:02:59.534,0.1,
11-02-1997 06:13:14.320,31805440,30-07-2024 18:02:59.534,0.2,
11-02-1997 06:13:14.320,31805440,30-07-2024 18:02:59.534,0.3,
11-02-1997 06:13:14.320,31805440,30-07-2024 18:02:59.534,0.42,
11-02-1997 06:13:14.320,31805440,30-07-2024 18:02:59.534,0.55,
11-02-1997 06:13:14.320,31805440,30-07-2024 18:02:59.534,0.67,
11-02-1997 06:13:14.320,31805440,30-07-2024 18:02:59.534,0.76,
11-02-1997 06:13:14.320,31805440,30-07-2024 18:02:59.534,0.82,
11-02-1997 06:13:14.320,31805440,30-07-2024 18:02:59.534,0.84,
11-02-1997 06:13:14.320,31805440,30-07-2024 18:02:59.534,0.82,
11-02-1997 06:13:14.320,31805440,30-07-2024 18:02:59.534,0.77,
11-02-1997 06:13:14.320,31805440,30-07-2024 18:02:59.534,0.68,
11-02-1997 06:13:14.320,31805440,30-07-2024 18:02:59.534,0.59,
11-02-1997 06:13:14.320,31805440,30-07-2024 18:02:59.534,0.48,
11-02-1997 06:13:14.320,31805440,30-07-2024 18:02:59.534,0.35,
11-02-1997 06:13:14.320,31805440,30-07-2024 18:02:59.534,0.23,
11-02-1997 06:13:14.320,31805440,30-07-2024 18:02:59.534,0.11,
11-02-1997 06:13:14.320,31805440,30-07-2024 18:02:59.534,0.03,
11-02-1997 06:13:14.320,31805440,30-07-2024 18:02:59.534,-0.04,
11-02-1997 06:13:14.320,31805440,30-07-2024 18:02:59.534,-0.09,
11-02-1997 06:13:14.320,31805440,30-07-2024 18:02:59.534,-0.13,
11-02-1997 06:13:14.320,31805440,30-07-2024 18:02:59.534,-0.15,
11-02-1997 06:13:14.320,31805440,30-07-2024 18:02:59.534,-0.17,
11-02-1997 06:13:14.320,31805440,30-07-2024 18:02:59.534,-0.17,
11-02-1997 06:13:14.320,31805440,30-07-2024 18:02:59.534,-0.17,
11-02-1997 06:13:14.320,31805440,30-07-2024 18:02:59.534,-0.15,
11-02-1997 06:13:14.320,31805440,30-07-2024 18:02:59.534,-0.14,
11-02-1997 06:13:14.320,31805440,30-07-2024 18:02:59.534,-0.12,
11-02-1997 06:13:14.320,31805440,30-07-2024 18:02:59.534,-0.11,
11-02-1997 06:13:14.320,31805440,30-07-2024 18:02:59.534,-0.1,
11-02-1997 06:13:14.320,31805440,30-07-2024 18:02:59.534,-0.1,
11-02-1997 06:13:14.320,31805440,30-07-2024 18:02:59.534,-0.09,
11-02-1997 06:13:14.320,31805440,30-07-2024 18:02:59.534,-0.09,
11-02-1997 06:13:14.320,31805440,30-07-2024 18:02:59.534,-0.09,
11-02-1997 06:13:14.320,31805440,30-07-2024 18:02:59.534,-0.08,
11-02-1997 06:13:14.320,31805440,30-07-2024 18:02:59.534,-0.08,
11-02-1997 06:13:14.320,31805440,30-07-2024 18:02:59.534,-0.08,
11-02-1997 06:13:14.320,31805440,30-07-2024 18:02:59.534,-0.08,
11-02-1997 06:13:14.320,31805440,30-07-2024 18:02:59.534,-0.08,
11-02-1997 06:13:14.320,31805440,30-07-2024 18:02:59.534,-0.08,
11-02-1997 06:13:14.320,31805440,30-07-2024 18:02:59.534,-0.08,
11-02-1997 06:13:14.320,31805440,30-07-2024 18:02:59.534,-0.08,
11-02-1997 06:13:14.320,31805440,30-07-2024 18:02:59.534,-0.09,
11-02-1997 06:13:14.320,31805440,30-07-2024 18:02:59.534,-0.08,
11-02-1997 06:13:14.320,31805440,30-07-2024 18:02:59.534,-0.08,
11-02-1997 06:13:14.320,31805440,30-07-2024 18:02:59.534,-0.08,
11-02-1997 06:13:14.320,31805440,30-07-2024 18:02:59.534,-0.08,
11-02-1997 06:13:14.320,31805440,30-07-2024 18:02:59.534,-0.08,
11-02-1997 06:13:14.320,31805440,30-07-2024 18:02:59.534,-0.08,
11-02-1997 06:13:14.576,31807488,30-07-2024 18:03:00.546,-0.08,
11-02-1997 06:13:14.576,31807488,30-07-2024 18:03:00.546,-0.08,
11-02-1997 06:13:14.576,31807488,30-07-2024 18:03:00.546,-0.08,
11-02-1997 06:13:14.576,31807488,30-07-2024 18:03:00.546,-0.08,
11-02-1997 06:13:14.576,31807488,30-07-2024 18:03:00.546,-0.08,
11-02-1997 06:13:14.576,31807488,30-07-2024 18:03:00.546,-0.08,
11-02-1997 06:13:14.576,31807488,30-07-2024 18:03:00.546,-0.08,
11-02-1997 06:13:14.576,31807488,30-07-2024 18:03:00.546,-0.08,
11-02-1997 06:13:14.576,31807488,30-07-2024 18:03:00.546,-0.08,
11-02-1997 06:13:14.576,31807488,30-07-2024 18:03:00.546,-0.07,
11-02-1997 06:13:14.576,31807488,30-07-2024 18:03:00.546,-0.07,
11-02-1997 06:13:14.576,31807488,30-07-2024 18:03:00.546,-0.07,
11-02-1997 06:13:14.576,31807488,30-07-2024 18:03:00.546,-0.07,
11-02-1997 06:13:14.576,31807488,30-07-2024 18:03:00.546,-0.08,
11-02-1997 06:13:14.576,31807488,30-07-2024 18:03:00.546,-0.08,
11-02-1997 06:13:14.576,31807488,30-07-2024 18:03:00.546,-0.08,
11-02-1997 06:13:14.576,31807488,30-07-2024 18:03:00.546,-0.08,
11-02-1997 06:13:14.576,31807488,30-07-2024 18:03:00.546,-0.08,
11-02-1997 06:13:14.576,31807488,30-07-2024 18:03:00.546,-0.08,
11-02-1997 06:13:14.576,31807488,30-07-2024 18:03:00.546,-0.08,
11-02-1997 06:13:14.576,31807488,30-07-2024 18:03:00.546,-0.08,
11-02-1997 06:13:14.576,31807488,30-07-2024 18:03:00.546,-0.07,
11-02-1997 06:13:14.576,31807488,30-07-2024 18:03:00.546,-0.07,
11-02-1997 06:13:14.576,31807488,30-07-2024 18:03:00.546,-0.07,
11-02-1997 06:13:14.576,31807488,30-07-2024 18:03:00.546,-0.07,
11-02-1997 06:13:14.576,31807488,30-07-2024 18:03:00.546,-0.07,
11-02-1997 06:13:14.576,31807488,30-07-2024 18:03:00.546,-0.07,
11-02-1997 06:13:14.576,31807488,30-07-2024 18:03:00.546,-0.07,
11-02-1997 06:13:14.576,31807488,30-07-2024 18:03:00.546,-0.07,
11-02-1997 06:13:14.576,31807488,30-07-2024 18:03:00.546,-0.07,
11-02-1997 06:13:14.576,31807488,30-07-2024 18:03:00.546,-0.07,
11-02-1997 06:13:14.576,31807488,30-07-2024 18:03:00.546,-0.07,
11-02-1997 06:13:14.576,31807488,30-07-2024 18:03:00.546,-0.07,
11-02-1997 06:13:14.576,31807488,30-07-2024 18:03:00.546,-0.07,
11-02-1997 06:13:14.576,31807488,30-07-2024 18:03:00.546,-0.07,
11-02-1997 06:13:14.576,31807488,30-07-2024 18:03:00.546,-0.07,
11-02-1997 06:13:14.576,31807488,30-07-2024 18:03:00.546,-0.07,
11-02-1997 06:13:14.576,31807488,30-07-2024 18:03:00.546,-0.06,
11-02-1997 06:13:14.576,31807488,30-07-2024 18:03:00.546,-0.06,
11-02-1997 06:13:14.576,31807488,30-07-2024 18:03:00.546,-0.06,
11-02-1997 06:13:14.576,31807488,30-07-2024 18:03:00.546,-0.05,
11-02-1997 06:13:14.576,31807488,30-07-2024 18:03:00.546,-0.04,
11-02-1997 06:13:14.576,31807488,30-07-2024 18:03:00.546,-0.04,
11-02-1997 06:13:14.576,31807488,30-07-2024 18:03:00.546,-0.03,
11-02-1997 06:13:14.576,31807488,30-07-2024 18:03:00.546,-0.03,
11-02-1997 06:13:14.576,31807488,30-07-2024 18:03:00.546,-0.02,
11-02-1997 06:13:14.576,31807488,30-07-2024 18:03:00.546,-0.01,
11-02-1997 06:13:14.576,31807488,30-07-2024 18:03:00.546,0,
11-02-1997 06:13:14.576,31807488,30-07-2024 18:03:00.546,0.02,
11-02-1997 06:13:14.576,31807488,30-07-2024 18:03:00.546,0.03,
11-02-1997 06:13:14.576,31807488,30-07-2024 18:03:00.546,0.04,
11-02-1997 06:13:14.576,31807488,30-07-2024 18:03:00.546,0.05,
11-02-1997 06:13:14.576,31807488,30-07-2024 18:03:00.546,0.05,
11-02-1997 06:13:14.576,31807488,30-07-2024 18:03:00.546,0.06,
11-02-1997 06:13:14.576,31807488,30-07-2024 18:03:00.546,0.07,
11-02-1997 06:13:14.576,31807488,30-07-2024 18:03:00.546,0.08,
11-02-1997 06:13:14.576,31807488,30-07-2024 18:03:00.546,0.09,
11-02-1997 06:13:14.576,31807488,30-07-2024 18:03:00.546,0.1,
11-02-1997 06:13:14.576,31807488,30-07-2024 18:03:00.546,0.1,
11-02-1997 06:13:14.576,31807488,30-07-2024 18:03:00.546,0.11,
11-02-1997 06:13:14.576,31807488,30-07-2024 18:03:00.546,0.12,
11-02-1997 06:13:14.576,31807488,30-07-2024 18:03:00.546,0.13,
11-02-1997 06:13:14.576,31807488,30-07-2024 18:03:00.546,0.13,
11-02-1997 06:13:14.576,31807488,30-07-2024 18:03:00.546,0.14,
11-02-1997 06:13:14.576,31807488,30-07-2024 18:03:00.546,0.14,
11-02-1997 06:13:14.576,31807488,30-07-2024 18:03:00.546,0.15,
11-02-1997 06:13:14.576,31807488,30-07-2024 18:03:00.546,0.15,
11-02-1997 06:13:14.576,31807488,30-07-2024 18:03:00.546,0.16,
11-02-1997 06:13:14.576,31807488,30-07-2024 18:03:00.546,0.16,
11-02-1997 06:13:14.576,31807488,30-07-2024 18:03:00.546,0.17,
11-02-1997 06:13:14.576,31807488,30-07-2024 18:03:00.546,0.17,
11-02-1997 06:13:14.576,31807488,30-07-2024 18:03:00.546,0.18,
11-02-1997 06:13:14.576,31807488,30-07-2024 18:03:00.546,0.18,
11-02-1997 06:13:14.576,31807488,30-07-2024 18:03:00.546,0.18,
11-02-1997 06:13:14.576,31807488,30-07-2024 18:03:00.546,0.18,
11-02-1997 06:13:14.576,31807488,30-07-2024 18:03:00.546,0.18,
11-02-1997 06:13:14.576,31807488,30-07-2024 18:03:00.546,0.18,
11-02-1997 06:13:14.576,31807488,30-07-2024 18:03:00.546,0.18,
11-02-1997 06:13:14.576,31807488,30-07-2024 18:03:00.546,0.18,
11-02-1997 06:13:14.576,31807488,30-07-2024 18:03:00.546,0.18,
11-02-1997 06:13:14.576,31807488,30-07-2024 18:03:00.546,0.18,
11-02-1997 06:13:14.576,31807488,30-07-2024 18:03:00.546,0.18,
11-02-1997 06:13:14.576,31807488,30-07-2024 18:03:00.546,0.18,
11-02-1997 06:13:14.576,31807488,30-07-2024 18:03:00.546,0.17,
11-02-1997 06:13:14.576,31807488,30-07-2024 18:03:00.546,0.17,
11-02-1997 06:13:14.576,31807488,30-07-2024 18:03:00.546,0.16,
11-02-1997 06:13:14.576,31807488,30-07-2024 18:03:00.546,0.16,
11-02-1997 06:13:14.576,31807488,30-07-2024 18:03:00.546,0.15,
11-02-1997 06:13:14.576,31807488,30-07-2024 18:03:00.546,0.15,
11-02-1997 06:13:14.576,31807488,30-07-2024 18:03:00.546,0.14,
11-02-1997 06:13:14.576,31807488,30-07-2024 18:03:00.546,0.13,
11-02-1997 06:13:14.576,31807488,30-07-2024 18:03:00.546,0.13,
11-02-1997 06:13:14.576,31807488,30-07-2024 18:03:00.546,0.12,
11-02-1997 06:13:14.576,31807488,30-07-2024 18:03:00.546,0.11,
11-02-1997 06:13:14.576,31807488,30-07-2024 18:03:00.546,0.1,
11-02-1997 06:13:14.576,31807488,30-07-2024 18:03:00.546,0.09,
11-02-1997 06:13:14.576,31807488,30-07-2024 18:03:00.546,0.08,
11-02-1997 06:13:14.576,31807488,30-07-2024 18:03:00.546,0.07,
11-02-1997 06:13:14.576,31807488,30-07-2024 18:03:00.546,0.07,
11-02-1997 06:13:14.576,31807488,30-07-2024 18:03:00.546,0.06,
11-02-1997 06:13:14.576,31807488,30-07-2024 18:03:00.546,0.05,
11-02-1997 06:13:14.576,31807488,30-07-2024 18:03:00.546,0.04,
11-02-1997 06:13:14.576,31807488,30-07-2024 18:03:00.546,0.03,
11-02-1997 06:13:14.576,31807488,30-07-2024 18:03:00.546,0.02,
11-02-1997 06:13:14.576,31807488,30-07-2024 18:03:00.546,0.01,
11-02-1997 06:13:14.576,31807488,30-07-2024 18:03:00.546,0,
11-02-1997 06:13:14.576,31807488,30-07-2024 18:03:00.546,-0,
11-02-1997 06:13:14.576,31807488,30-07-2024 18:03:00.546,-0.01,
11-02-1997 06:13:14.576,31807488,30-07-2024 18:03:00.546,-0.02,
11-02-1997 06:13:14.576,31807488,30-07-2024 18:03:00.546,-0.03,
11-02-1997 06:13:14.576,31807488,30-07-2024 18:03:00.546,-0.04,
11-02-1997 06:13:14.576,31807488,30-07-2024 18:03:00.546,-0.05,
11-02-1997 06:13:14.576,31807488,30-07-2024 18:03:00.546,-0.06,
11-02-1997 06:13:14.576,31807488,30-07-2024 18:03:00.546,-0.06,
11-02-1997 06:13:14.576,31807488,30-07-2024 18:03:00.546,-0.07,
11-02-1997 06:13:14.576,31807488,30-07-2024 18:03:00.546,-0.08,
11-02-1997 06:13:14.576,31807488,30-07-2024 18:03:00.546,-0.09,
11-02-1997 06:13:14.576,31807488,30-07-2024 18:03:00.546,-0.1,
11-02-1997 06:13:14.576,31807488,30-07-2024 18:03:00.546,-0.11,
11-02-1997 06:13:14.576,31807488,30-07-2024 18:03:00.546,-0.11,
11-02-1997 06:13:14.576,31807488,30-07-2024 18:03:00.546,-0.1,
11-02-1997 06:13:14.576,31807488,30-07-2024 18:03:00.546,-0.1,
11-02-1997 06:13:14.576,31807488,30-07-2024 18:03:00.546,-0.1,
11-02-1997 06:13:14.576,31807488,30-07-2024 18:03:00.546,-0.11,
11-02-1997 06:13:14.576,31807488,30-07-2024 18:03:00.546,-0.11,
11-02-1997 06:13:14.576,31807488,30-07-2024 18:03:00.546,-0.11,
11-02-1997 06:13:14.576,31807488,30-07-2024 18:03:00.546,-0.1,
11-02-1997 06:13:14.576,31807488,30-07-2024 18:03:00.546,-0.1,
11-02-1997 06:13:14.832,31809536,30-07-2024 18:03:00.550,-0.1,
11-02-1997 06:13:14.832,31809536,30-07-2024 18:03:00.550,-0.1,
11-02-1997 06:13:14.832,31809536,30-07-2024 18:03:00.550,-0.1,
11-02-1997 06:13:14.832,31809536,30-07-2024 18:03:00.550,-0.1,
11-02-1997 06:13:14.832,31809536,30-07-2024 18:03:00.550,-0.1,
11-02-1997 06:13:14.832,31809536,30-07-2024 18:03:00.550,-0.1,
11-02-1997 06:13:14.832,31809536,30-07-2024 18:03:00.550,-0.1,
11-02-1997 06:13:14.832,31809536,30-07-2024 18:03:00.550,-0.1,
11-02-1997 06:13:14.832,31809536,30-07-2024 18:03:00.550,-0.1,
11-02-1997 06:13:14.832,31809536,30-07-2024 18:03:00.550,-0.1,
11-02-1997 06:13:14.832,31809536,30-07-2024 18:03:00.550,-0.09,
11-02-1997 06:13:14.832,31809536,30-07-2024 18:03:00.550,-0.09,
11-02-1997 06:13:14.832,31809536,30-07-2024 18:03:00.550,-0.09,
11-02-1997 06:13:14.832,31809536,30-07-2024 18:03:00.550,-0.09,
11-02-1997 06:13:14.832,31809536,30-07-2024 18:03:00.550,-0.09,
11-02-1997 06:13:14.832,31809536,30-07-2024 18:03:00.550,-0.09,
11-02-1997 06:13:14.832,31809536,30-07-2024 18:03:00.550,-0.09,
11-02-1997 06:13:14.832,31809536,30-07-2024 18:03:00.550,-0.09,
11-02-1997 06:13:14.832,31809536,30-07-2024 18:03:00.550,-0.09,
11-02-1997 06:13:14.832,31809536,30-07-2024 18:03:00.550,-0.09,
11-02-1997 06:13:14.832,31809536,30-07-2024 18:03:00.550,-0.09,
11-02-1997 06:13:14.832,31809536,30-07-2024 18:03:00.550,-0.08,
11-02-1997 06:13:14.832,31809536,30-07-2024 18:03:00.550,-0.08,
11-02-1997 06:13:14.832,31809536,30-07-2024 18:03:00.550,-0.08,
11-02-1997 06:13:14.832,31809536,30-07-2024 18:03:00.550,-0.08,
11-02-1997 06:13:14.832,31809536,30-07-2024 18:03:00.550,-0.08,
11-02-1997 06:13:14.832,31809536,30-07-2024 18:03:00.550,-0.08,
11-02-1997 06:13:14.832,31809536,30-07-2024 18:03:00.550,-0.08,
11-02-1997 06:13:14.832,31809536,30-07-2024 18:03:00.550,-0.08,
11-02-1997 06:13:14.832,31809536,30-07-2024 18:03:00.550,-0.08,
11-02-1997 06:13:14.832,31809536,30-07-2024 18:03:00.550,-0.08,
11-02-1997 06:13:14.832,31809536,30-07-2024 18:03:00.550,-0.08,
11-02-1997 06:13:14.832,31809536,30-07-2024 18:03:00.550,-0.08,
11-02-1997 06:13:14.832,31809536,30-07-2024 18:03:00.550,-0.08,
11-02-1997 06:13:14.832,31809536,30-07-2024 18:03:00.550,-0.08,
11-02-1997 06:13:14.832,31809536,30-07-2024 18:03:00.550,-0.08,
11-02-1997 06:13:14.832,31809536,30-07-2024 18:03:00.550,-0.08,
11-02-1997 06:13:14.832,31809536,30-07-2024 18:03:00.550,-0.08,
11-02-1997 06:13:14.832,31809536,30-07-2024 18:03:00.550,-0.08,
11-02-1997 06:13:14.832,31809536,30-07-2024 18:03:00.550,-0.08,
11-02-1997 06:13:14.832,31809536,30-07-2024 18:03:00.550,-0.07,
11-02-1997 06:13:14.832,31809536,30-07-2024 18:03:00.550,-0.07,
11-02-1997 06:13:14.832,31809536,30-07-2024 18:03:00.550,-0.08,
11-02-1997 06:13:14.832,31809536,30-07-2024 18:03:00.550,-0.08,
11-02-1997 06:13:14.832,31809536,30-07-2024 18:03:00.550,-0.08,
11-02-1997 06:13:14.832,31809536,30-07-2024 18:03:00.550,-0.08,
11-02-1997 06:13:14.832,31809536,30-07-2024 18:03:00.550,-0.08,
11-02-1997 06:13:14.832,31809536,30-07-2024 18:03:00.550,-0.08,
11-02-1997 06:13:14.832,31809536,30-07-2024 18:03:00.550,-0.07,
11-02-1997 06:13:14.832,31809536,30-07-2024 18:03:00.550,-0.07,
11-02-1997 06:13:14.832,31809536,30-07-2024 18:03:00.550,-0.07,
11-02-1997 06:13:14.832,31809536,30-07-2024 18:03:00.550,-0.07,
11-02-1997 06:13:14.832,31809536,30-07-2024 18:03:00.550,-0.07,
11-02-1997 06:13:14.832,31809536,30-07-2024 18:03:00.550,-0.07,
11-02-1997 06:13:14.832,31809536,30-07-2024 18:03:00.550,-0.07,
11-02-1997 06:13:14.832,31809536,30-07-2024 18:03:00.550,-0.07,
11-02-1997 06:13:14.832,31809536,30-07-2024 18:03:00.550,-0.07,
11-02-1997 06:13:14.832,31809536,30-07-2024 18:03:00.550,-0.07,
11-02-1997 06:13:14.832,31809536,30-07-2024 18:03:00.550,-0.07,
11-02-1997 06:13:14.832,31809536,30-07-2024 18:03:00.550,-0.07,
11-02-1997 06:13:14.832,31809536,30-07-2024 18:03:00.550,-0.07,
11-02-1997 06:13:14.832,31809536,30-07-2024 18:03:00.550,-0.07,
11-02-1997 06:13:14.832,31809536,30-07-2024 18:03:00.550,-0.07,
11-02-1997 06:13:14.832,31809536,30-07-2024 18:03:00.550,-0.07,
11-02-1997 06:13:14.832,31809536,30-07-2024 18:03:00.550,-0.07,
11-02-1997 06:13:14.832,31809536,30-07-2024 18:03:00.550,-0.07,
11-02-1997 06:13:14.832,31809536,30-07-2024 18:03:00.550,-0.07,
11-02-1997 06:13:14.832,31809536,30-07-2024 18:03:00.550,-0.07,
11-02-1997 06:13:14.832,31809536,30-07-2024 18:03:00.550,-0.07,
11-02-1997 06:13:14.832,31809536,30-07-2024 18:03:00.550,-0.06,
11-02-1997 06:13:14.832,31809536,30-07-2024 18:03:00.550,-0.06,
11-02-1997 06:13:14.832,31809536,30-07-2024 18:03:00.550,-0.06,
11-02-1997 06:13:14.832,31809536,30-07-2024 18:03:00.550,-0.06,
11-02-1997 06:13:14.832,31809536,30-07-2024 18:03:00.550,-0.06,
11-02-1997 06:13:14.832,31809536,30-07-2024 18:03:00.550,-0.07,
11-02-1997 06:13:14.832,31809536,30-07-2024 18:03:00.550,-0.07,
11-02-1997 06:13:14.832,31809536,30-07-2024 18:03:00.550,-0.07,
11-02-1997 06:13:14.832,31809536,30-07-2024 18:03:00.550,-0.07,
11-02-1997 06:13:14.832,31809536,30-07-2024 18:03:00.550,-0.06,
11-02-1997 06:13:14.832,31809536,30-07-2024 18:03:00.550,-0.06,
11-02-1997 06:13:14.832,31809536,30-07-2024 18:03:00.550,-0.06,
11-02-1997 06:13:14.832,31809536,30-07-2024 18:03:00.550,-0.06,
11-02-1997 06:13:14.832,31809536,30-07-2024 18:03:00.550,-0.06,
11-02-1997 06:13:14.832,31809536,30-07-2024 18:03:00.550,-0.06,
11-02-1997 06:13:14.832,31809536,30-07-2024 18:03:00.550,-0.06,
11-02-1997 06:13:14.832,31809536,30-07-2024 18:03:00.550,-0.06,
11-02-1997 06:13:14.832,31809536,30-07-2024 18:03:00.550,-0.06,
11-02-1997 06:13:14.832,31809536,30-07-2024 18:03:00.550,-0.06,
11-02-1997 06:13:14.832,31809536,30-07-2024 18:03:00.550,-0.06,
11-02-1997 06:13:14.832,31809536,30-07-2024 18:03:00.550,-0.06,
11-02-1997 06:13:14.832,31809536,30-07-2024 18:03:00.550,-0.05,
11-02-1997 06:13:14.832,31809536,30-07-2024 18:03:00.550,-0.05,
11-02-1997 06:13:14.832,31809536,30-07-2024 18:03:00.550,-0.06,
11-02-1997 06:13:14.832,31809536,30-07-2024 18:03:00.550,-0.06,
11-02-1997 06:13:14.832,31809536,30-07-2024 18:03:00.550,-0.06,
11-02-1997 06:13:14.832,31809536,30-07-2024 18:03:00.550,-0.06,
11-02-1997 06:13:14.832,31809536,30-07-2024 18:03:00.550,-0.06,
11-02-1997 06:13:14.832,31809536,30-07-2024 18:03:00.550,-0.05,
11-02-1997 06:13:14.832,31809536,30-07-2024 18:03:00.550,-0.05,
11-02-1997 06:13:14.832,31809536,30-07-2024 18:03:00.550,-0.05,
11-02-1997 06:13:14.832,31809536,30-07-2024 18:03:00.550,-0.05,
11-02-1997 06:13:14.832,31809536,30-07-2024 18:03:00.550,-0.05,
11-02-1997 06:13:14.832,31809536,30-07-2024 18:03:00.550,-0.05,
11-02-1997 06:13:14.832,31809536,30-07-2024 18:03:00.550,-0.05,
11-02-1997 06:13:14.832,31809536,30-07-2024 18:03:00.550,-0.05,
11-02-1997 06:13:14.832,31809536,30-07-2024 18:03:00.550,-0.05,
11-02-1997 06:13:14.832,31809536,30-07-2024 18:03:00.550,-0.05,
11-02-1997 06:13:14.832,31809536,30-07-2024 18:03:00.550,-0.05,
11-02-1997 06:13:14.832,31809536,30-07-2024 18:03:00.550,-0.05,
11-02-1997 06:13:14.832,31809536,30-07-2024 18:03:00.550,-0.04,
11-02-1997 06:13:14.832,31809536,30-07-2024 18:03:00.550,-0.03,
11-02-1997 06:13:14.832,31809536,30-07-2024 18:03:00.550,-0.03,
11-02-1997 06:13:14.832,31809536,30-07-2024 18:03:00.550,-0.02,
11-02-1997 06:13:14.832,31809536,30-07-2024 18:03:00.550,-0.01,
11-02-1997 06:13:14.832,31809536,30-07-2024 18:03:00.550,-0,
11-02-1997 06:13:14.832,31809536,30-07-2024 18:03:00.550,0.01,
11-02-1997 06:13:14.832,31809536,30-07-2024 18:03:00.550,0.02,
11-02-1997 06:13:14.832,31809536,30-07-2024 18:03:00.550,0.03,
11-02-1997 06:13:14.832,31809536,30-07-2024 18:03:00.550,0.03,
11-02-1997 06:13:14.832,31809536,30-07-2024 18:03:00.550,0.04,
11-02-1997 06:13:14.832,31809536,30-07-2024 18:03:00.550,0.05,
11-02-1997 06:13:14.832,31809536,30-07-2024 18:03:00.550,0.06,
11-02-1997 06:13:14.832,31809536,30-07-2024 18:03:00.550,0.07,
11-02-1997 06:13:14.832,31809536,30-07-2024 18:03:00.550,0.08,
11-02-1997 06:13:14.832,31809536,30-07-2024 18:03:00.550,0.08,
11-02-1997 06:13:14.832,31809536,30-07-2024 18:03:00.550,0.08,
11-02-1997 06:13:14.832,31809536,30-07-2024 18:03:00.550,0.09,
11-02-1997 06:13:14.832,31809536,30-07-2024 18:03:00.550,0.09,
11-02-1997 06:13:15.088,31811584,30-07-2024 18:03:00.553,0.09,
11-02-1997 06:13:15.088,31811584,30-07-2024 18:03:00.553,0.09,
11-02-1997 06:13:15.088,31811584,30-07-2024 18:03:00.553,0.09,
11-02-1997 06:13:15.088,31811584,30-07-2024 18:03:00.553,0.09,
11-02-1997 06:13:15.088,31811584,30-07-2024 18:03:00.553,0.08,
11-02-1997 06:13:15.088,31811584,30-07-2024 18:03:00.553,0.07,
11-02-1997 06:13:15.088,31811584,30-07-2024 18:03:00.553,0.06,
11-02-1997 06:13:15.088,31811584,30-07-2024 18:03:00.553,0.06,
11-02-1997 06:13:15.088,31811584,30-07-2024 18:03:00.553,0.05,
11-02-1997 06:13:15.088,31811584,30-07-2024 18:03:00.553,0.04,
11-02-1997 06:13:15.088,31811584,30-07-2024 18:03:00.553,0.03,
11-02-1997 06:13:15.088,31811584,30-07-2024 18:03:00.553,0.02,
11-02-1997 06:13:15.088,31811584,30-07-2024 18:03:00.553,0.02,
11-02-1997 06:13:15.088,31811584,30-07-2024 18:03:00.553,0.01,
11-02-1997 06:13:15.088,31811584,30-07-2024 18:03:00.553,-0,
11-02-1997 06:13:15.088,31811584,30-07-2024 18:03:00.553,-0.01,
11-02-1997 06:13:15.088,31811584,30-07-2024 18:03:00.553,-0.02,
11-02-1997 06:13:15.088,31811584,30-07-2024 18:03:00.553,-0.02,
11-02-1997 06:13:15.088,31811584,30-07-2024 18:03:00.553,-0.03,
11-02-1997 06:13:15.088,31811584,30-07-2024 18:03:00.553,-0.04,
11-02-1997 06:13:15.088,31811584,30-07-2024 18:03:00.553,-0.05,
11-02-1997 06:13:15.088,31811584,30-07-2024 18:03:00.553,-0.05,
11-02-1997 06:13:15.088,31811584,30-07-2024 18:03:00.553,-0.05,
11-02-1997 06:13:15.088,31811584,30-07-2024 18:03:00.553,-0.05,
11-02-1997 06:13:15.088,31811584,30-07-2024 18:03:00.553,-0.05,
11-02-1997 06:13:15.088,31811584,30-07-2024 18:03:00.553,-0.05,
11-02-1997 06:13:15.088,31811584,30-07-2024 18:03:00.553,-0.06,
11-02-1997 06:13:15.088,31811584,30-07-2024 18:03:00.553,-0.06,
11-02-1997 06:13:15.088,31811584,30-07-2024 18:03:00.553,-0.06,
11-02-1997 06:13:15.088,31811584,30-07-2024 18:03:00.553,-0.06,
11-02-1997 06:13:15.088,31811584,30-07-2024 18:03:00.553,-0.05,
11-02-1997 06:13:15.088,31811584,30-07-2024 18:03:00.553,-0.05,
11-02-1997 06:13:15.088,31811584,30-07-2024 18:03:00.553,-0.05,
11-02-1997 06:13:15.088,31811584,30-07-2024 18:03:00.553,-0.05,
11-02-1997 06:13:15.088,31811584,30-07-2024 18:03:00.553,-0.05,
11-02-1997 06:13:15.088,31811584,30-07-2024 18:03:00.553,-0.05,
11-02-1997 06:13:15.088,31811584,30-07-2024 18:03:00.553,-0.05,
11-02-1997 06:13:15.088,31811584,30-07-2024 18:03:00.553,-0.05,
11-02-1997 06:13:15.088,31811584,30-07-2024 18:03:00.553,-0.05,
11-02-1997 06:13:15.088,31811584,30-07-2024 18:03:00.553,-0.05,
11-02-1997 06:13:15.088,31811584,30-07-2024 18:03:00.553,-0.05,
11-02-1997 06:13:15.088,31811584,30-07-2024 18:03:00.553,-0.05,
11-02-1997 06:13:15.088,31811584,30-07-2024 18:03:00.553,-0.05,
11-02-1997 06:13:15.088,31811584,30-07-2024 18:03:00.553,-0.05,
11-02-1997 06:13:15.088,31811584,30-07-2024 18:03:00.553,-0.05,
11-02-1997 06:13:15.088,31811584,30-07-2024 18:03:00.553,-0.05,
11-02-1997 06:13:15.088,31811584,30-07-2024 18:03:00.553,-0.05,
11-02-1997 06:13:15.088,31811584,30-07-2024 18:03:00.553,-0.05,
11-02-1997 06:13:15.088,31811584,30-07-2024 18:03:00.553,-0.05,
11-02-1997 06:13:15.088,31811584,30-07-2024 18:03:00.553,-0.05,
11-02-1997 06:13:15.088,31811584,30-07-2024 18:03:00.553,-0.05,
11-02-1997 06:13:15.088,31811584,30-07-2024 18:03:00.553,-0.05,
11-02-1997 06:13:15.088,31811584,30-07-2024 18:03:00.553,-0.05,
11-02-1997 06:13:15.088,31811584,30-07-2024 18:03:00.553,-0.05,
11-02-1997 06:13:15.088,31811584,30-07-2024 18:03:00.553,-0.05,
11-02-1997 06:13:15.088,31811584,30-07-2024 18:03:00.553,-0.05,
11-02-1997 06:13:15.088,31811584,30-07-2024 18:03:00.553,-0.05,
11-02-1997 06:13:15.088,31811584,30-07-2024 18:03:00.553,-0.05,
11-02-1997 06:13:15.088,31811584,30-07-2024 18:03:00.553,-0.06,
11-02-1997 06:13:15.088,31811584,30-07-2024 18:03:00.553,-0.07,
11-02-1997 06:13:15.088,31811584,30-07-2024 18:03:00.553,-0.09,
11-02-1997 06:13:15.088,31811584,30-07-2024 18:03:00.553,-0.11,
11-02-1997 06:13:15.088,31811584,30-07-2024 18:03:00.553,-0.12,
11-02-1997 06:13:15.088,31811584,30-07-2024 18:03:00.553,-0.15,
11-02-1997 06:13:15.088,31811584,30-07-2024 18:03:00.553,-0.16,
11-02-1997 06:13:15.088,31811584,30-07-2024 18:03:00.553,-0.16,
11-02-1997 06:13:15.088,31811584,30-07-2024 18:03:00.553,-0.15,
11-02-1997 06:13:15.088,31811584,30-07-2024 18:03:00.553,-0.11,
11-02-1997 06:13:15.088,31811584,30-07-2024 18:03:00.553,-0.04,
11-02-1997 06:13:15.088,31811584,30-07-2024 18:03:00.553,0.04,
11-02-1997 06:13:15.088,31811584,30-07-2024 18:03:00.553,0.13,
11-02-1997 06:13:15.088,31811584,30-07-2024 18:03:00.553,0.23,
11-02-1997 06:13:15.088,31811584,30-07-2024 18:03:00.553,0.33,
11-02-1997 06:13:15.088,31811584,30-07-2024 18:03:00.553,0.45,
11-02-1997 06:13:15.088,31811584,30-07-2024 18:03:00.553,0.58,
11-02-1997 06:13:15.088,31811584,30-07-2024 18:03:00.553,0.69,
11-02-1997 06:13:15.088,31811584,30-07-2024 18:03:00.553,0.78,
11-02-1997 06:13:15.088,31811584,30-07-2024 18:03:00.553,0.83,
11-02-1997 06:13:15.088,31811584,30-07-2024 18:03:00.553,0.84,
11-02-1997 06:13:15.088,31811584,30-07-2024 18:03:00.553,0.81,
11-02-1997 06:13:15.088,31811584,30-07-2024 18:03:00.553,0.74,
11-02-1997 06:13:15.088,31811584,30-07-2024 18:03:00.553,0.67,
11-02-1997 06:13:15.088,31811584,30-07-2024 18:03:00.553,0.59,
11-02-1997 06:13:15.088,31811584,30-07-2024 18:03:00.553,0.48,
11-02-1997 06:13:15.088,31811584,30-07-2024 18:03:00.553,0.35,
11-02-1997 06:13:15.088,31811584,30-07-2024 18:03:00.553,0.23,
11-02-1997 06:13:15.088,31811584,30-07-2024 18:03:00.553,0.11,
11-02-1997 06:13:15.088,31811584,30-07-2024 18:03:00.553,0.03,
11-02-1997 06:13:15.088,31811584,30-07-2024 18:03:00.553,-0.04,
11-02-1997 06:13:15.088,31811584,30-07-2024 18:03:00.553,-0.09,
11-02-1997 06:13:15.088,31811584,30-07-2024 18:03:00.553,-0.12,
11-02-1997 06:13:15.088,31811584,30-07-2024 18:03:00.553,-0.15,
11-02-1997 06:13:15.088,31811584,30-07-2024 18:03:00.553,-0.16,
11-02-1997 06:13:15.088,31811584,30-07-2024 18:03:00.553,-0.16,
11-02-1997 06:13:15.088,31811584,30-07-2024 18:03:00.553,-0.16,
11-02-1997 06:13:15.088,31811584,30-07-2024 18:03:00.553,-0.15,
11-02-1997 06:13:15.088,31811584,30-07-2024 18:03:00.553,-0.13,
11-02-1997 06:13:15.088,31811584,30-07-2024 18:03:00.553,-0.12,
11-02-1997 06:13:15.088,31811584,30-07-2024 18:03:00.553,-0.1,
11-02-1997 06:13:15.088,31811584,30-07-2024 18:03:00.553,-0.1,
11-02-1997 06:13:15.088,31811584,30-07-2024 18:03:00.553,-0.1,
11-02-1997 06:13:15.088,31811584,30-07-2024 18:03:00.553,-0.09,
11-02-1997 06:13:15.088,31811584,30-07-2024 18:03:00.553,-0.09,
11-02-1997 06:13:15.088,31811584,30-07-2024 18:03:00.553,-0.09,
11-02-1997 06:13:15.088,31811584,30-07-2024 18:03:00.553,-0.09,
11-02-1997 06:13:15.088,31811584,30-07-2024 18:03:00.553,-0.09,
11-02-1997 06:13:15.088,31811584,30-07-2024 18:03:00.553,-0.09,
11-02-1997 06:13:15.088,31811584,30-07-2024 18:03:00.553,-0.09,
11-02-1997 06:13:15.088,31811584,30-07-2024 18:03:00.553,-0.09,
11-02-1997 06:13:15.088,31811584,30-07-2024 18:03:00.553,-0.09,
11-02-1997 06:13:15.088,31811584,30-07-2024 18:03:00.553,-0.08,
11-02-1997 06:13:15.088,31811584,30-07-2024 18:03:00.553,-0.08,
11-02-1997 06:13:15.088,31811584,30-07-2024 18:03:00.553,-0.08,
11-02-1997 06:13:15.088,31811584,30-07-2024 18:03:00.553,-0.08,
11-02-1997 06:13:15.088,31811584,30-07-2024 18:03:00.553,-0.08,
11-02-1997 06:13:15.088,31811584,30-07-2024 18:03:00.553,-0.08,
11-02-1997 06:13:15.088,31811584,30-07-2024 18:03:00.553,-0.08,
11-02-1997 06:13:15.088,31811584,30-07-2024 18:03:00.553,-0.07,
11-02-1997 06:13:15.088,31811584,30-07-2024 18:03:00.553,-0.08,
11-02-1997 06:13:15.088,31811584,30-07-2024 18:03:00.553,-0.08,
11-02-1997 06:13:15.088,31811584,30-07-2024 18:03:00.553,-0.07,
11-02-1997 06:13:15.088,31811584,30-07-2024 18:03:00.553,-0.08,
11-02-1997 06:13:15.088,31811584,30-07-2024 18:03:00.553,-0.08,
11-02-1997 06:13:15.088,31811584,30-07-2024 18:03:00.553,-0.07,
11-02-1997 06:13:15.088,31811584,30-07-2024 18:03:00.553,-0.07,
11-02-1997 06:13:15.088,31811584,30-07-2024 18:03:00.553,-0.07,
11-02-1997 06:13:15.088,31811584,30-07-2024 18:03:00.553,-0.07,
11-02-1997 06:13:15.088,31811584,30-07-2024 18:03:00.553,-0.07,
11-02-1997 06:13:15.344,31813632,30-07-2024 18:03:00.555,-0.07,
11-02-1997 06:13:15.344,31813632,30-07-2024 18:03:00.555,-0.07,
11-02-1997 06:13:15.344,31813632,30-07-2024 18:03:00.555,-0.07,
11-02-1997 06:13:15.344,31813632,30-07-2024 18:03:00.555,-0.07,
11-02-1997 06:13:15.344,31813632,30-07-2024 18:03:00.555,-0.07,
11-02-1997 06:13:15.344,31813632,30-07-2024 18:03:00.555,-0.06,
11-02-1997 06:13:15.344,31813632,30-07-2024 18:03:00.555,-0.06,
11-02-1997 06:13:15.344,31813632,30-07-2024 18:03:00.555,-0.06,
11-02-1997 06:13:15.344,31813632,30-07-2024 18:03:00.555,-0.06,
11-02-1997 06:13:15.344,31813632,30-07-2024 18:03:00.555,-0.07,
11-02-1997 06:13:15.344,31813632,30-07-2024 18:03:00.555,-0.07,
11-02-1997 06:13:15.344,31813632,30-07-2024 18:03:00.555,-0.07,
11-02-1997 06:13:15.344,31813632,30-07-2024 18:03:00.555,-0.07,
11-02-1997 06:13:15.344,31813632,30-07-2024 18:03:00.555,-0.07,
11-02-1997 06:13:15.344,31813632,30-07-2024 18:03:00.555,-0.07,
11-02-1997 06:13:15.344,31813632,30-07-2024 18:03:00.555,-0.07,
11-02-1997 06:13:15.344,31813632,30-07-2024 18:03:00.555,-0.06,
11-02-1997 06:13:15.344,31813632,30-07-2024 18:03:00.555,-0.06,
11-02-1997 06:13:15.344,31813632,30-07-2024 18:03:00.555,-0.06,
11-02-1997 06:13:15.344,31813632,30-07-2024 18:03:00.555,-0.06,
11-02-1997 06:13:15.344,31813632,30-07-2024 18:03:00.555,-0.06,
11-02-1997 06:13:15.344,31813632,30-07-2024 18:03:00.555,-0.06,
11-02-1997 06:13:15.344,31813632,30-07-2024 18:03:00.555,-0.06,
11-02-1997 06:13:15.344,31813632,30-07-2024 18:03:00.555,-0.06,
11-02-1997 06:13:15.344,31813632,30-07-2024 18:03:00.555,-0.06,
11-02-1997 06:13:15.344,31813632,30-07-2024 18:03:00.555,-0.06,
11-02-1997 06:13:15.344,31813632,30-07-2024 18:03:00.555,-0.06,
11-02-1997 06:13:15.344,31813632,30-07-2024 18:03:00.555,-0.06,
11-02-1997 06:13:15.344,31813632,30-07-2024 18:03:00.555,-0.06,
11-02-1997 06:13:15.344,31813632,30-07-2024 18:03:00.555,-0.06,
11-02-1997 06:13:15.344,31813632,30-07-2024 18:03:00.555,-0.05,
11-02-1997 06:13:15.344,31813632,30-07-2024 18:03:00.555,-0.05,
11-02-1997 06:13:15.344,31813632,30-07-2024 18:03:00.555,-0.04,
11-02-1997 06:13:15.344,31813632,30-07-2024 18:03:00.555,-0.03,
11-02-1997 06:13:15.344,31813632,30-07-2024 18:03:00.555,-0.02,
11-02-1997 06:13:15.344,31813632,30-07-2024 18:03:00.555,-0.01,
11-02-1997 06:13:15.344,31813632,30-07-2024 18:03:00.555,0,
11-02-1997 06:13:15.344,31813632,30-07-2024 18:03:00.555,0.01,
11-02-1997 06:13:15.344,31813632,30-07-2024 18:03:00.555,0.02,
11-02-1997 06:13:15.344,31813632,30-07-2024 18:03:00.555,0.03,
11-02-1997 06:13:15.344,31813632,30-07-2024 18:03:00.555,0.04,
11-02-1997 06:13:15.344,31813632,30-07-2024 18:03:00.555,0.04,
11-02-1997 06:13:15.344,31813632,30-07-2024 18:03:00.555,0.05,
11-02-1997 06:13:15.344,31813632,30-07-2024 18:03:00.555,0.06,
11-02-1997 06:13:15.344,31813632,30-07-2024 18:03:00.555,0.07,
11-02-1997 06:13:15.344,31813632,30-07-2024 18:03:00.555,0.08,
11-02-1997 06:13:15.344,31813632,30-07-2024 18:03:00.555,0.09,
11-02-1997 06:13:15.344,31813632,30-07-2024 18:03:00.555,0.1,
11-02-1997 06:13:15.344,31813632,30-07-2024 18:03:00.555,0.1,
11-02-1997 06:13:15.344,31813632,30-07-2024 18:03:00.555,0.11,
11-02-1997 06:13:15.344,31813632,30-07-2024 18:03:00.555,0.12,
11-02-1997 06:13:15.344,31813632,30-07-2024 18:03:00.555,0.12,
11-02-1997 06:13:15.344,31813632,30-07-2024 18:03:00.555,0.13,
11-02-1997 06:13:15.344,31813632,30-07-2024 18:03:00.555,0.14,
11-02-1997 06:13:15.344,31813632,30-07-2024 18:03:00.555,0.14,
11-02-1997 06:13:15.344,31813632,30-07-2024 18:03:00.555,0.15,
11-02-1997 06:13:15.344,31813632,30-07-2024 18:03:00.555,0.16,
11-02-1997 06:13:15.344,31813632,30-07-2024 18:03:00.555,0.16,
11-02-1997 06:13:15.344,31813632,30-07-2024 18:03:00.555,0.17,
11-02-1997 06:13:15.344,31813632,30-07-2024 18:03:00.555,0.17,
11-02-1997 06:13:15.344,31813632,30-07-2024 18:03:00.555,0.17,
11-02-1997 06:13:15.344,31813632,30-07-2024 18:03:00.555,0.17,
11-02-1997 06:13:15.344,31813632,30-07-2024 18:03:00.555,0.18,
11-02-1997 06:13:15.344,31813632,30-07-2024 18:03:00.555,0.19,
11-02-1997 06:13:15.344,31813632,30-07-2024 18:03:00.555,0.18,
11-02-1997 06:13:15.344,31813632,30-07-2024 18:03:00.555,0.18,
11-02-1997 06:13:15.344,31813632,30-07-2024 18:03:00.555,0.19,
11-02-1997 06:13:15.344,31813632,30-07-2024 18:03:00.555,0.19,
11-02-1997 06:13:15.344,31813632,30-07-2024 18:03:00.555,0.19,
11-02-1997 06:13:15.344,31813632,30-07-2024 18:03:00.555,0.19,
11-02-1997 06:13:15.344,31813632,30-07-2024 18:03:00.555,0.18,
11-02-1997 06:13:15.344,31813632,30-07-2024 18:03:00.555,0.18,
11-02-1997 06:13:15.344,31813632,30-07-2024 18:03:00.555,0.18,
11-02-1997 06:13:15.344,31813632,30-07-2024 18:03:00.555,0.17,
11-02-1997 06:13:15.344,31813632,30-07-2024 18:03:00.555,0.17,
11-02-1997 06:13:15.344,31813632,30-07-2024 18:03:00.555,0.17,
11-02-1997 06:13:15.344,31813632,30-07-2024 18:03:00.555,0.16,
11-02-1997 06:13:15.344,31813632,30-07-2024 18:03:00.555,0.16,
11-02-1997 06:13:15.344,31813632,30-07-2024 18:03:00.555,0.15,
11-02-1997 06:13:15.344,31813632,30-07-2024 18:03:00.555,0.15,
11-02-1997 06:13:15.344,31813632,30-07-2024 18:03:00.555,0.14,
11-02-1997 06:13:15.344,31813632,30-07-2024 18:03:00.555,0.13,
11-02-1997 06:13:15.344,31813632,30-07-2024 18:03:00.555,0.12,
11-02-1997 06:13:15.344,31813632,30-07-2024 18:03:00.555,0.12,
11-02-1997 06:13:15.344,31813632,30-07-2024 18:03:00.555,0.12,
11-02-1997 06:13:15.344,31813632,30-07-2024 18:03:00.555,0.11,
11-02-1997 06:13:15.344,31813632,30-07-2024 18:03:00.555,0.1,
11-02-1997 06:13:15.344,31813632,30-07-2024 18:03:00.555,0.09,
11-02-1997 06:13:15.344,31813632,30-07-2024 18:03:00.555,0.08,
11-02-1997 06:13:15.344,31813632,30-07-2024 18:03:00.555,0.07,
11-02-1997 06:13:15.344,31813632,30-07-2024 18:03:00.555,0.06,
11-02-1997 06:13:15.344,31813632,30-07-2024 18:03:00.555,0.05,
11-02-1997 06:13:15.344,31813632,30-07-2024 18:03:00.555,0.04,
11-02-1997 06:13:15.344,31813632,30-07-2024 18:03:00.555,0.03,
11-02-1997 06:13:15.344,31813632,30-07-2024 18:03:00.555,0.02,
11-02-1997 06:13:15.344,31813632,30-07-2024 18:03:00.555,0.02,
11-02-1997 06:13:15.344,31813632,30-07-2024 18:03:00.555,0.01,
11-02-1997 06:13:15.344,31813632,30-07-2024 18:03:00.555,-0,
11-02-1997 06:13:15.344,31813632,30-07-2024 18:03:00.555,-0.01,
11-02-1997 06:13:15.344,31813632,30-07-2024 18:03:00.555,-0.02,
11-02-1997 06:13:15.344,31813632,30-07-2024 18:03:00.555,-0.03,
11-02-1997 06:13:15.344,31813632,30-07-2024 18:03:00.555,-0.04,
11-02-1997 06:13:15.344,31813632,30-07-2024 18:03:00.555,-0.05,
11-02-1997 06:13:15.344,31813632,30-07-2024 18:03:00.555,-0.06,
11-02-1997 06:13:15.344,31813632,30-07-2024 18:03:00.555,-0.07,
11-02-1997 06:13:15.344,31813632,30-07-2024 18:03:00.555,-0.08,
11-02-1997 06:13:15.344,31813632,30-07-2024 18:03:00.555,-0.08,
11-02-1997 06:13:15.344,31813632,30-07-2024 18:03:00.555,-0.09,
11-02-1997 06:13:15.344,31813632,30-07-2024 18:03:00.555,-0.1,
11-02-1997 06:13:15.344,31813632,30-07-2024 18:03:00.555,-0.1,
11-02-1997 06:13:15.344,31813632,30-07-2024 18:03:00.555,-0.1,
11-02-1997 06:13:15.344,31813632,30-07-2024 18:03:00.555,-0.1,
11-02-1997 06:13:15.344,31813632,30-07-2024 18:03:00.555,-0.1,
11-02-1997 06:13:15.344,31813632,30-07-2024 18:03:00.555,-0.1,
11-02-1997 06:13:15.344,31813632,30-07-2024 18:03:00.555,-0.1,
11-02-1997 06:13:15.344,31813632,30-07-2024 18:03:00.555,-0.1,
11-02-1997 06:13:15.344,31813632,30-07-2024 18:03:00.555,-0.1,
11-02-1997 06:13:15.344,31813632,30-07-2024 18:03:00.555,-0.1,
11-02-1997 06:13:15.344,31813632,30-07-2024 18:03:00.555,-0.1,
11-02-1997 06:13:15.344,31813632,30-07-2024 18:03:00.555,-0.1,
11-02-1997 06:13:15.344,31813632,30-07-2024 18:03:00.555,-0.1,
11-02-1997 06:13:15.344,31813632,30-07-2024 18:03:00.555,-0.1,
11-02-1997 06:13:15.344,31813632,30-07-2024 18:03:00.555,-0.1,
11-02-1997 06:13:15.344,31813632,30-07-2024 18:03:00.555,-0.09,
11-02-1997 06:13:15.344,31813632,30-07-2024 18:03:00.555,-0.09,
11-02-1997 06:13:15.344,31813632,30-07-2024 18:03:00.555,-0.09,
11-02-1997 06:13:15.344,31813632,30-07-2024 18:03:00.555,-0.09,
11-02-1997 06:13:15.344,31813632,30-07-2024 18:03:00.555,-0.09,
11-02-1997 06:13:15.600,31815680,30-07-2024 18:03:01.562,-0.09,
11-02-1997 06:13:15.600,31815680,30-07-2024 18:03:01.562,-0.1,
11-02-1997 06:13:15.600,31815680,30-07-2024 18:03:01.562,-0.09,
11-02-1997 06:13:15.600,31815680,30-07-2024 18:03:01.562,-0.09,
11-02-1997 06:13:15.600,31815680,30-07-2024 18:03:01.562,-0.09,
11-02-1997 06:13:15.600,31815680,30-07-2024 18:03:01.562,-0.09,
11-02-1997 06:13:15.600,31815680,30-07-2024 18:03:01.562,-0.08,
11-02-1997 06:13:15.600,31815680,30-07-2024 18:03:01.562,-0.08,
11-02-1997 06:13:15.600,31815680,30-07-2024 18:03:01.562,-0.08,
11-02-1997 06:13:15.600,31815680,30-07-2024 18:03:01.562,-0.08,
11-02-1997 06:13:15.600,31815680,30-07-2024 18:03:01.562,-0.08,
11-02-1997 06:13:15.600,31815680,30-07-2024 18:03:01.562,-0.08,
11-02-1997 06:13:15.600,31815680,30-07-2024 18:03:01.562,-0.08,
11-02-1997 06:13:15.600,31815680,30-07-2024 18:03:01.562,-0.08,
11-02-1997 06:13:15.600,31815680,30-07-2024 18:03:01.562,-0.08,
11-02-1997 06:13:15.600,31815680,30-07-2024 18:03:01.562,-0.08,
11-02-1997 06:13:15.600,31815680,30-07-2024 18:03:01.562,-0.08,
11-02-1997 06:13:15.600,31815680,30-07-2024 18:03:01.562,-0.08,
11-02-1997 06:13:15.600,31815680,30-07-2024 18:03:01.562,-0.08,
11-02-1997 06:13:15.600,31815680,30-07-2024 18:03:01.562,-0.08,
11-02-1997 06:13:15.600,31815680,30-07-2024 18:03:01.562,-0.08,
11-02-1997 06:13:15.600,31815680,30-07-2024 18:03:01.562,-0.08,
11-02-1997 06:13:15.600,31815680,30-07-2024 18:03:01.562,-0.08,
11-02-1997 06:13:15.600,31815680,30-07-2024 18:03:01.562,-0.08,
11-02-1997 06:13:15.600,31815680,30-07-2024 18:03:01.562,-0.08,
11-02-1997 06:13:15.600,31815680,30-07-2024 18:03:01.562,-0.08,
11-02-1997 06:13:15.600,31815680,30-07-2024 18:03:01.562,-0.08,
11-02-1997 06:13:15.600,31815680,30-07-2024 18:03:01.562,-0.08,
11-02-1997 06:13:15.600,31815680,30-07-2024 18:03:01.562,-0.07,
11-02-1997 06:13:15.600,31815680,30-07-2024 18:03:01.562,-0.07,
11-02-1997 06:13:15.600,31815680,30-07-2024 18:03:01.562,-0.07,
11-02-1997 06:13:15.600,31815680,30-07-2024 18:03:01.562,-0.07,
11-02-1997 06:13:15.600,31815680,30-07-2024 18:03:01.562,-0.07,
11-02-1997 06:13:15.600,31815680,30-07-2024 18:03:01.562,-0.07,
11-02-1997 06:13:15.600,31815680,30-07-2024 18:03:01.562,-0.07,
11-02-1997 06:13:15.600,31815680,30-07-2024 18:03:01.562,-0.07,
11-02-1997 06:13:15.600,31815680,30-07-2024 18:03:01.562,-0.07,
11-02-1997 06:13:15.600,31815680,30-07-2024 18:03:01.562,-0.07,
11-02-1997 06:13:15.600,31815680,30-07-2024 18:03:01.562,-0.07,
11-02-1997 06:13:15.600,31815680,30-07-2024 18:03:01.562,-0.07,
11-02-1997 06:13:15.600,31815680,30-07-2024 18:03:01.562,-0.07,
11-02-1997 06:13:15.600,31815680,30-07-2024 18:03:01.562,-0.07,
11-02-1997 06:13:15.600,31815680,30-07-2024 18:03:01.562,-0.07,
11-02-1997 06:13:15.600,31815680,30-07-2024 18:03:01.562,-0.07,
11-02-1997 06:13:15.600,31815680,30-07-2024 18:03:01.562,-0.07,
11-02-1997 06:13:15.600,31815680,30-07-2024 18:03:01.562,-0.07,
11-02-1997 06:13:15.600,31815680,30-07-2024 18:03:01.562,-0.07,
11-02-1997 06:13:15.600,31815680,30-07-2024 18:03:01.562,-0.07,
11-02-1997 06:13:15.600,31815680,30-07-2024 18:03:01.562,-0.06,
11-02-1997 06:13:15.600,31815680,30-07-2024 18:03:01.562,-0.06,
11-02-1997 06:13:15.600,31815680,30-07-2024 18:03:01.562,-0.07,
11-02-1997 06:13:15.600,31815680,30-07-2024 18:03:01.562,-0.07,
11-02-1997 06:13:15.600,31815680,30-07-2024 18:03:01.562,-0.07,
11-02-1997 06:13:15.600,31815680,30-07-2024 18:03:01.562,-0.07,
11-02-1997 06:13:15.600,31815680,30-07-2024 18:03:01.562,-0.06,
11-02-1997 06:13:15.600,31815680,30-07-2024 18:03:01.562,-0.06,
11-02-1997 06:13:15.600,31815680,30-07-2024 18:03:01.562,-0.06,
11-02-1997 06:13:15.600,31815680,30-07-2024 18:03:01.562,-0.06,
11-02-1997 06:13:15.600,31815680,30-07-2024 18:03:01.562,-0.06,
11-02-1997 06:13:15.600,31815680,30-07-2024 18:03:01.562,-0.06,
11-02-1997 06:13:15.600,31815680,30-07-2024 18:03:01.562,-0.06,
11-02-1997 06:13:15.600,31815680,30-07-2024 18:03:01.562,-0.06,
11-02-1997 06:13:15.600,31815680,30-07-2024 18:03:01.562,-0.06,
11-02-1997 06:13:15.600,31815680,30-07-2024 18:03:01.562,-0.06,
11-02-1997 06:13:15.600,31815680,30-07-2024 18:03:01.562,-0.06,
11-02-1997 06:13:15.600,31815680,30-07-2024 18:03:01.562,-0.06,
11-02-1997 06:13:15.600,31815680,30-07-2024 18:03:01.562,-0.06,
11-02-1997 06:13:15.600,31815680,30-07-2024 18:03:01.562,-0.05,
11-02-1997 06:13:15.600,31815680,30-07-2024 18:03:01.562,-0.06,
11-02-1997 06:13:15.600,31815680,30-07-2024 18:03:01.562,-0.06,
11-02-1997 06:13:15.600,31815680,30-07-2024 18:03:01.562,-0.06,
11-02-1997 06:13:15.600,31815680,30-07-2024 18:03:01.562,-0.06,
11-02-1997 06:13:15.600,31815680,30-07-2024 18:03:01.562,-0.06,
11-02-1997 06:13:15.600,31815680,30-07-2024 18:03:01.562,-0.06,
11-02-1997 06:13:15.600,31815680,30-07-2024 18:03:01.562,-0.05,
11-02-1997 06:13:15.600,31815680,30-07-2024 18:03:01.562,-0.05,
11-02-1997 06:13:15.600,31815680,30-07-2024 18:03:01.562,-0.05,
11-02-1997 06:13:15.600,31815680,30-07-2024 18:03:01.562,-0.05,
11-02-1997 06:13:15.600,31815680,30-07-2024 18:03:01.562,-0.05,
11-02-1997 06:13:15.600,31815680,30-07-2024 18:03:01.562,-0.05,
11-02-1997 06:13:15.600,31815680,30-07-2024 18:03:01.562,-0.05,
11-02-1997 06:13:15.600,31815680,30-07-2024 18:03:01.562,-0.05,
11-02-1997 06:13:15.600,31815680,30-07-2024 18:03:01.562,-0.05,
11-02-1997 06:13:15.600,31815680,30-07-2024 18:03:01.562,-0.05,
11-02-1997 06:13:15.600,31815680,30-07-2024 18:03:01.562,-0.05,
11-02-1997 06:13:15.600,31815680,30-07-2024 18:03:01.562,-0.04,
11-02-1997 06:13:15.600,31815680,30-07-2024 18:03:01.562,-0.04,
11-02-1997 06:13:15.600,31815680,30-07-2024 18:03:01.562,-0.05,
11-02-1997 06:13:15.600,31815680,30-07-2024 18:03:01.562,-0.05,
11-02-1997 06:13:15.600,31815680,30-07-2024 18:03:01.562,-0.05,
11-02-1997 06:13:15.600,31815680,30-07-2024 18:03:01.562,-0.05,
11-02-1997 06:13:15.600,31815680,30-07-2024 18:03:01.562,-0.05,
11-02-1997 06:13:15.600,31815680,30-07-2024 18:03:01.562,-0.04,
11-02-1997 06:13:15.600,31815680,30-07-2024 18:03:01.562,-0.04,
11-02-1997 06:13:15.600,31815680,30-07-2024 18:03:01.562,-0.04,
11-02-1997 06:13:15.600,31815680,30-07-2024 18:03:01.562,-0.04,
11-02-1997 06:13:15.600,31815680,30-07-2024 18:03:01.562,-0.04,
11-02-1997 06:13:15.600,31815680,30-07-2024 18:03:01.562,-0.04,
11-02-1997 06:13:15.600,31815680,30-07-2024 18:03:01.562,-0.04,
11-02-1997 06:13:15.600,31815680,30-07-2024 18:03:01.562,-0.04,
11-02-1997 06:13:15.600,31815680,30-07-2024 18:03:01.562,-0.04,
11-02-1997 06:13:15.600,31815680,30-07-2024 18:03:01.562,-0.03,
11-02-1997 06:13:15.600,31815680,30-07-2024 18:03:01.562,-0.02,
11-02-1997 06:13:15.600,31815680,30-07-2024 18:03:01.562,-0.01,
11-02-1997 06:13:15.600,31815680,30-07-2024 18:03:01.562,0,
11-02-1997 06:13:15.600,31815680,30-07-2024 18:03:01.562,0.01,
11-02-1997 06:13:15.600,31815680,30-07-2024 18:03:01.562,0.02,
11-02-1997 06:13:15.600,31815680,30-07-2024 18:03:01.562,0.04,
11-02-1997 06:13:15.600,31815680,30-07-2024 18:03:01.562,0.05,
11-02-1997 06:13:15.600,31815680,30-07-2024 18:03:01.562,0.05,
11-02-1997 06:13:15.600,31815680,30-07-2024 18:03:01.562,0.06,
11-02-1997 06:13:15.600,31815680,30-07-2024 18:03:01.562,0.07,
11-02-1997 06:13:15.600,31815680,30-07-2024 18:03:01.562,0.07,
11-02-1997 06:13:15.600,31815680,30-07-2024 18:03:01.562,0.08,
11-02-1997 06:13:15.600,31815680,30-07-2024 18:03:01.562,0.09,
11-02-1997 06:13:15.600,31815680,30-07-2024 18:03:01.562,0.09,
11-02-1997 06:13:15.600,31815680,30-07-2024 18:03:01.562,0.09,
11-02-1997 06:13:15.600,31815680,30-07-2024 18:03:01.562,0.1,
11-02-1997 06:13:15.600,31815680,30-07-2024 18:03:01.562,0.1,
11-02-1997 06:13:15.600,31815680,30-07-2024 18:03:01.562,0.1,
11-02-1997 06:13:15.600,31815680,30-07-2024 18:03:01.562,0.09,
11-02-1997 06:13:15.600,31815680,30-07-2024 18:03:01.562,0.09,
11-02-1997 06:13:15.600,31815680,30-07-2024 18:03:01.562,0.09,
11-02-1997 06:13:15.600,31815680,30-07-2024 18:03:01.562,0.08,
11-02-1997 06:13:15.600,31815680,30-07-2024 18:03:01.562,0.08,
11-02-1997 06:13:15.600,31815680,30-07-2024 18:03:01.562,0.07,
11-02-1997 06:13:15.600,31815680,30-07-2024 18:03:01.562,0.06,
11-02-1997 06:13:15.600,31815680,30-07-2024 18:03:01.562,0.06,
11-02-1997 06:13:15.856,31817728,30-07-2024 18:03:01.567,0.05,
11-02-1997 06:13:15.856,31817728,30-07-2024 18:03:01.567,0.04,
11-02-1997 06:13:15.856,31817728,30-07-2024 18:03:01.567,0.03,
11-02-1997 06:13:15.856,31817728,30-07-2024 18:03:01.567,0.02,
11-02-1997 06:13:15.856,31817728,30-07-2024 18:03:01.567,0.02,
11-02-1997 06:13:15.856,31817728,30-07-2024 18:03:01.567,0,
11-02-1997 06:13:15.856,31817728,30-07-2024 18:03:01.567,-0.01,
11-02-1997 06:13:15.856,31817728,30-07-2024 18:03:01.567,-0.01,
11-02-1997 06:13:15.856,31817728,30-07-2024 18:03:01.567,-0.02,
11-02-1997 06:13:15.856,31817728,30-07-2024 18:03:01.567,-0.03,
11-02-1997 06:13:15.856,31817728,30-07-2024 18:03:01.567,-0.04,
11-02-1997 06:13:15.856,31817728,30-07-2024 18:03:01.567,-0.05,
11-02-1997 06:13:15.856,31817728,30-07-2024 18:03:01.567,-0.05,
11-02-1997 06:13:15.856,31817728,30-07-2024 18:03:01.567,-0.05,
11-02-1997 06:13:15.856,31817728,30-07-2024 18:03:01.567,-0.05,
11-02-1997 06:13:15.856,31817728,30-07-2024 18:03:01.567,-0.06,
11-02-1997 06:13:15.856,31817728,30-07-2024 18:03:01.567,-0.05,
11-02-1997 06:13:15.856,31817728,30-07-2024 18:03:01.567,-0.05,
11-02-1997 06:13:15.856,31817728,30-07-2024 18:03:01.567,-0.05,
11-02-1997 06:13:15.856,31817728,30-07-2024 18:03:01.567,-0.05,
11-02-1997 06:13:15.856,31817728,30-07-2024 18:03:01.567,-0.05,
11-02-1997 06:13:15.856,31817728,30-07-2024 18:03:01.567,-0.05,
11-02-1997 06:13:15.856,31817728,30-07-2024 18:03:01.567,-0.05,
11-02-1997 06:13:15.856,31817728,30-07-2024 18:03:01.567,-0.05,
11-02-1997 06:13:15.856,31817728,30-07-2024 18:03:01.567,-0.05,
11-02-1997 06:13:15.856,31817728,30-07-2024 18:03:01.567,-0.04,
11-02-1997 06:13:15.856,31817728,30-07-2024 18:03:01.567,-0.04,
11-02-1997 06:13:15.856,31817728,30-07-2024 18:03:01.567,-0.04,
11-02-1997 06:13:15.856,31817728,30-07-2024 18:03:01.567,-0.04,
11-02-1997 06:13:15.856,31817728,30-07-2024 18:03:01.567,-0.04,
11-02-1997 06:13:15.856,31817728,30-07-2024 18:03:01.567,-0.04,
11-02-1997 06:13:15.856,31817728,30-07-2024 18:03:01.567,-0.04,
11-02-1997 06:13:15.856,31817728,30-07-2024 18:03:01.567,-0.04,
11-02-1997 06:13:15.856,31817728,30-07-2024 18:03:01.567,-0.04,
11-02-1997 06:13:15.856,31817728,30-07-2024 18:03:01.567,-0.05,
11-02-1997 06:13:15.856,31817728,30-07-2024 18:03:01.567,-0.04,
11-02-1997 06:13:15.856,31817728,30-07-2024 18:03:01.567,-0.04,
11-02-1997 06:13:15.856,31817728,30-07-2024 18:03:01.567,-0.04,
11-02-1997 06:13:15.856,31817728,30-07-2024 18:03:01.567,-0.04,
11-02-1997 06:13:15.856,31817728,30-07-2024 18:03:01.567,-0.04,
11-02-1997 06:13:15.856,31817728,30-07-2024 18:03:01.567,-0.04,
11-02-1997 06:13:15.856,31817728,30-07-2024 18:03:01.567,-0.04,
11-02-1997 06:13:15.856,31817728,30-07-2024 18:03:01.567,-0.04,
11-02-1997 06:13:15.856,31817728,30-07-2024 18:03:01.567,-0.04,
11-02-1997 06:13:15.856,31817728,30-07-2024 18:03:01.567,-0.04,
11-02-1997 06:13:15.856,31817728,30-07-2024 18:03:01.567,-0.04,
11-02-1997 06:13:15.856,31817728,30-07-2024 18:03:01.567,-0.04,
11-02-1997 06:13:15.856,31817728,30-07-2024 18:03:01.567,-0.04,
11-02-1997 06:13:15.856,31817728,30-07-2024 18:03:01.567,-0.04,
11-02-1997 06:13:15.856,31817728,30-07-2024 18:03:01.567,-0.05,
11-02-1997 06:13:15.856,31817728,30-07-2024 18:03:01.567,-0.06,
11-02-1997 06:13:15.856,31817728,30-07-2024 18:03:01.567,-0.08,
11-02-1997 06:13:15.856,31817728,30-07-2024 18:03:01.567,-0.11,
11-02-1997 06:13:15.856,31817728,30-07-2024 18:03:01.567,-0.13,
11-02-1997 06:13:15.856,31817728,30-07-2024 18:03:01.567,-0.15,
11-02-1997 06:13:15.856,31817728,30-07-2024 18:03:01.567,-0.16,
11-02-1997 06:13:15.856,31817728,30-07-2024 18:03:01.567,-0.15,
11-02-1997 06:13:15.856,31817728,30-07-2024 18:03:01.567,-0.13,
11-02-1997 06:13:15.856,31817728,30-07-2024 18:03:01.567,-0.09,
11-02-1997 06:13:15.856,31817728,30-07-2024 18:03:01.567,-0.03,
11-02-1997 06:13:15.856,31817728,30-07-2024 18:03:01.567,0.06,
11-02-1997 06:13:15.856,31817728,30-07-2024 18:03:01.567,0.16,
11-02-1997 06:13:15.856,31817728,30-07-2024 18:03:01.567,0.26,
11-02-1997 06:13:15.856,31817728,30-07-2024 18:03:01.567,0.37,
11-02-1997 06:13:15.856,31817728,30-07-2024 18:03:01.567,0.5,
11-02-1997 06:13:15.856,31817728,30-07-2024 18:03:01.567,0.62,
11-02-1997 06:13:15.856,31817728,30-07-2024 18:03:01.567,0.73,
11-02-1997 06:13:15.856,31817728,30-07-2024 18:03:01.567,0.81,
11-02-1997 06:13:15.856,31817728,30-07-2024 18:03:01.567,0.85,
11-02-1997 06:13:15.856,31817728,30-07-2024 18:03:01.567,0.86,
11-02-1997 06:13:15.856,31817728,30-07-2024 18:03:01.567,0.82,
11-02-1997 06:13:15.856,31817728,30-07-2024 18:03:01.567,0.75,
11-02-1997 06:13:15.856,31817728,30-07-2024 18:03:01.567,0.67,
11-02-1997 06:13:15.856,31817728,30-07-2024 18:03:01.567,0.57,
11-02-1997 06:13:15.856,31817728,30-07-2024 18:03:01.567,0.45,
11-02-1997 06:13:15.856,31817728,30-07-2024 18:03:01.567,0.33,
11-02-1997 06:13:15.856,31817728,30-07-2024 18:03:01.567,0.2,
11-02-1997 06:13:15.856,31817728,30-07-2024 18:03:01.567,0.1,
11-02-1997 06:13:15.856,31817728,30-07-2024 18:03:01.567,0.03,
11-02-1997 06:13:15.856,31817728,30-07-2024 18:03:01.567,-0.03,
11-02-1997 06:13:15.856,31817728,30-07-2024 18:03:01.567,-0.08,
11-02-1997 06:13:15.856,31817728,30-07-2024 18:03:01.567,-0.12,
11-02-1997 06:13:15.856,31817728,30-07-2024 18:03:01.567,-0.14,
11-02-1997 06:13:15.856,31817728,30-07-2024 18:03:01.567,-0.16,
11-02-1997 06:13:15.856,31817728,30-07-2024 18:03:01.567,-0.16,
11-02-1997 06:13:15.856,31817728,30-07-2024 18:03:01.567,-0.15,
11-02-1997 06:13:15.856,31817728,30-07-2024 18:03:01.567,-0.13,
11-02-1997 06:13:15.856,31817728,30-07-2024 18:03:01.567,-0.11,
11-02-1997 06:13:15.856,31817728,30-07-2024 18:03:01.567,-0.1,
11-02-1997 06:13:15.856,31817728,30-07-2024 18:03:01.567,-0.09,
11-02-1997 06:13:15.856,31817728,30-07-2024 18:03:01.567,-0.08,
11-02-1997 06:13:15.856,31817728,30-07-2024 18:03:01.567,-0.08,
11-02-1997 06:13:15.856,31817728,30-07-2024 18:03:01.567,-0.08,
11-02-1997 06:13:15.856,31817728,30-07-2024 18:03:01.567,-0.08,
11-02-1997 06:13:15.856,31817728,30-07-2024 18:03:01.567,-0.08,
11-02-1997 06:13:15.856,31817728,30-07-2024 18:03:01.567,-0.08,
11-02-1997 06:13:15.856,31817728,30-07-2024 18:03:01.567,-0.08,
11-02-1997 06:13:15.856,31817728,30-07-2024 18:03:01.567,-0.08,
11-02-1997 06:13:15.856,31817728,30-07-2024 18:03:01.567,-0.08,
11-02-1997 06:13:15.856,31817728,30-07-2024 18:03:01.567,-0.08,
11-02-1997 06:13:15.856,31817728,30-07-2024 18:03:01.567,-0.08,
11-02-1997 06:13:15.856,31817728,30-07-2024 18:03:01.567,-0.08,
11-02-1997 06:13:15.856,31817728,30-07-2024 18:03:01.567,-0.07,
11-02-1997 06:13:15.856,31817728,30-07-2024 18:03:01.567,-0.07,
11-02-1997 06:13:15.856,31817728,30-07-2024 18:03:01.567,-0.08,
11-02-1997 06:13:15.856,31817728,30-07-2024 18:03:01.567,-0.07,
11-02-1997 06:13:15.856,31817728,30-07-2024 18:03:01.567,-0.07,
11-02-1997 06:13:15.856,31817728,30-07-2024 18:03:01.567,-0.08,
11-02-1997 06:13:15.856,31817728,30-07-2024 18:03:01.567,-0.07,
11-02-1997 06:13:15.856,31817728,30-07-2024 18:03:01.567,-0.07,
11-02-1997 06:13:15.856,31817728,30-07-2024 18:03:01.567,-0.07,
11-02-1997 06:13:15.856,31817728,30-07-2024 18:03:01.567,-0.07,
11-02-1997 06:13:15.856,31817728,30-07-2024 18:03:01.567,-0.07,
11-02-1997 06:13:15.856,31817728,30-07-2024 18:03:01.567,-0.07,
11-02-1997 06:13:15.856,31817728,30-07-2024 18:03:01.567,-0.07,
11-02-1997 06:13:15.856,31817728,30-07-2024 18:03:01.567,-0.07,
11-02-1997 06:13:15.856,31817728,30-07-2024 18:03:01.567,-0.07,
11-02-1997 06:13:15.856,31817728,30-07-2024 18:03:01.567,-0.06,
11-02-1997 06:13:15.856,31817728,30-07-2024 18:03:01.567,-0.06,
11-02-1997 06:13:15.856,31817728,30-07-2024 18:03:01.567,-0.06,
11-02-1997 06:13:15.856,31817728,30-07-2024 18:03:01.567,-0.06,
11-02-1997 06:13:15.856,31817728,30-07-2024 18:03:01.567,-0.06,
11-02-1997 06:13:15.856,31817728,30-07-2024 18:03:01.567,-0.06,
11-02-1997 06:13:15.856,31817728,30-07-2024 18:03:01.567,-0.06,
11-02-1997 06:13:15.856,31817728,30-07-2024 18:03:01.567,-0.06,
11-02-1997 06:13:15.856,31817728,30-07-2024 18:03:01.567,-0.06,
11-02-1997 06:13:15.856,31817728,30-07-2024 18:03:01.567,-0.06,
11-02-1997 06:13:15.856,31817728,30-07-2024 18:03:01.567,-0.06,
11-02-1997 06:13:16.112,31819776,30-07-2024 18:03:01.570,-0.06,
11-02-1997 06:13:16.112,31819776,30-07-2024 18:03:01.570,-0.06,
11-02-1997 06:13:16.112,31819776,30-07-2024 18:03:01.570,-0.06,
11-02-1997 06:13:16.112,31819776,30-07-2024 18:03:01.570,-0.06,
11-02-1997 06:13:16.112,31819776,30-07-2024 18:03:01.570,-0.06,
11-02-1997 06:13:16.112,31819776,30-07-2024 18:03:01.570,-0.06,
11-02-1997 06:13:16.112,31819776,30-07-2024 18:03:01.570,-0.06,
11-02-1997 06:13:16.112,31819776,30-07-2024 18:03:01.570,-0.06,
11-02-1997 06:13:16.112,31819776,30-07-2024 18:03:01.570,-0.06,
11-02-1997 06:13:16.112,31819776,30-07-2024 18:03:01.570,-0.06,
11-02-1997 06:13:16.112,31819776,30-07-2024 18:03:01.570,-0.06,
11-02-1997 06:13:16.112,31819776,30-07-2024 18:03:01.570,-0.06,
11-02-1997 06:13:16.112,31819776,30-07-2024 18:03:01.570,-0.06,
11-02-1997 06:13:16.112,31819776,30-07-2024 18:03:01.570,-0.06,
11-02-1997 06:13:16.112,31819776,30-07-2024 18:03:01.570,-0.06,
11-02-1997 06:13:16.112,31819776,30-07-2024 18:03:01.570,-0.06,
11-02-1997 06:13:16.112,31819776,30-07-2024 18:03:01.570,-0.06,
11-02-1997 06:13:16.112,31819776,30-07-2024 18:03:01.570,-0.06,
11-02-1997 06:13:16.112,31819776,30-07-2024 18:03:01.570,-0.05,
11-02-1997 06:13:16.112,31819776,30-07-2024 18:03:01.570,-0.05,
11-02-1997 06:13:16.112,31819776,30-07-2024 18:03:01.570,-0.05,
11-02-1997 06:13:16.112,31819776,30-07-2024 18:03:01.570,-0.04,
11-02-1997 06:13:16.112,31819776,30-07-2024 18:03:01.570,-0.04,
11-02-1997 06:13:16.112,31819776,30-07-2024 18:03:01.570,-0.03,
11-02-1997 06:13:16.112,31819776,30-07-2024 18:03:01.570,-0.02,
11-02-1997 06:13:16.112,31819776,30-07-2024 18:03:01.570,-0.02,
11-02-1997 06:13:16.112,31819776,30-07-2024 18:03:01.570,-0.01,
11-02-1997 06:13:16.112,31819776,30-07-2024 18:03:01.570,0,
11-02-1997 06:13:16.112,31819776,30-07-2024 18:03:01.570,0.01,
11-02-1997 06:13:16.112,31819776,30-07-2024 18:03:01.570,0.02,
11-02-1997 06:13:16.112,31819776,30-07-2024 18:03:01.570,0.03,
11-02-1997 06:13:16.112,31819776,30-07-2024 18:03:01.570,0.04,
11-02-1997 06:13:16.112,31819776,30-07-2024 18:03:01.570,0.05,
11-02-1997 06:13:16.112,31819776,30-07-2024 18:03:01.570,0.06,
11-02-1997 06:13:16.112,31819776,30-07-2024 18:03:01.570,0.07,
11-02-1997 06:13:16.112,31819776,30-07-2024 18:03:01.570,0.08,
11-02-1997 06:13:16.112,31819776,30-07-2024 18:03:01.570,0.09,
11-02-1997 06:13:16.112,31819776,30-07-2024 18:03:01.570,0.09,
11-02-1997 06:13:16.112,31819776,30-07-2024 18:03:01.570,0.1,
11-02-1997 06:13:16.112,31819776,30-07-2024 18:03:01.570,0.11,
11-02-1997 06:13:16.112,31819776,30-07-2024 18:03:01.570,0.12,
11-02-1997 06:13:16.112,31819776,30-07-2024 18:03:01.570,0.13,
11-02-1997 06:13:16.112,31819776,30-07-2024 18:03:01.570,0.14,
11-02-1997 06:13:16.112,31819776,30-07-2024 18:03:01.570,0.14,
11-02-1997 06:13:16.112,31819776,30-07-2024 18:03:01.570,0.15,
11-02-1997 06:13:16.112,31819776,30-07-2024 18:03:01.570,0.15,
11-02-1997 06:13:16.112,31819776,30-07-2024 18:03:01.570,0.16,
11-02-1997 06:13:16.112,31819776,30-07-2024 18:03:01.570,0.17,
11-02-1997 06:13:16.112,31819776,30-07-2024 18:03:01.570,0.17,
11-02-1997 06:13:16.112,31819776,30-07-2024 18:03:01.570,0.17,
11-02-1997 06:13:16.112,31819776,30-07-2024 18:03:01.570,0.18,
11-02-1997 06:13:16.112,31819776,30-07-2024 18:03:01.570,0.18,
11-02-1997 06:13:16.112,31819776,30-07-2024 18:03:01.570,0.18,
11-02-1997 06:13:16.112,31819776,30-07-2024 18:03:01.570,0.18,
11-02-1997 06:13:16.112,31819776,30-07-2024 18:03:01.570,0.18,
11-02-1997 06:13:16.112,31819776,30-07-2024 18:03:01.570,0.19,
11-02-1997 06:13:16.112,31819776,30-07-2024 18:03:01.570,0.19,
11-02-1997 06:13:16.112,31819776,30-07-2024 18:03:01.570,0.19,
11-02-1997 06:13:16.112,31819776,30-07-2024 18:03:01.570,0.19,
11-02-1997 06:13:16.112,31819776,30-07-2024 18:03:01.570,0.19,
11-02-1997 06:13:16.112,31819776,30-07-2024 18:03:01.570,0.19,
11-02-1997 06:13:16.112,31819776,30-07-2024 18:03:01.570,0.19,
11-02-1997 06:13:16.112,31819776,30-07-2024 18:03:01.570,0.19,
11-02-1997 06:13:16.112,31819776,30-07-2024 18:03:01.570,0.18,
11-02-1997 06:13:16.112,31819776,30-07-2024 18:03:01.570,0.17,
11-02-1997 06:13:16.112,31819776,30-07-2024 18:03:01.570,0.17,
11-02-1997 06:13:16.112,31819776,30-07-2024 18:03:01.570,0.17,
11-02-1997 06:13:16.112,31819776,30-07-2024 18:03:01.570,0.16,
11-02-1997 06:13:16.112,31819776,30-07-2024 18:03:01.570,0.16,
11-02-1997 06:13:16.112,31819776,30-07-2024 18:03:01.570,0.15,
11-02-1997 06:13:16.112,31819776,30-07-2024 18:03:01.570,0.14,
11-02-1997 06:13:16.112,31819776,30-07-2024 18:03:01.570,0.14,
11-02-1997 06:13:16.112,31819776,30-07-2024 18:03:01.570,0.14,
11-02-1997 06:13:16.112,31819776,30-07-2024 18:03:01.570,0.13,
11-02-1997 06:13:16.112,31819776,30-07-2024 18:03:01.570,0.12,
11-02-1997 06:13:16.112,31819776,30-07-2024 18:03:01.570,0.11,
11-02-1997 06:13:16.112,31819776,30-07-2024 18:03:01.570,0.11,
11-02-1997 06:13:16.112,31819776,30-07-2024 18:03:01.570,0.1,
11-02-1997 06:13:16.112,31819776,30-07-2024 18:03:01.570,0.09,
11-02-1997 06:13:16.112,31819776,30-07-2024 18:03:01.570,0.08,
11-02-1997 06:13:16.112,31819776,30-07-2024 18:03:01.570,0.08,
11-02-1997 06:13:16.112,31819776,30-07-2024 18:03:01.570,0.07,
11-02-1997 06:13:16.112,31819776,30-07-2024 18:03:01.570,0.06,
11-02-1997 06:13:16.112,31819776,30-07-2024 18:03:01.570,0.05,
11-02-1997 06:13:16.112,31819776,30-07-2024 18:03:01.570,0.04,
11-02-1997 06:13:16.112,31819776,30-07-2024 18:03:01.570,0.03,
11-02-1997 06:13:16.112,31819776,30-07-2024 18:03:01.570,0.02,
11-02-1997 06:13:16.112,31819776,30-07-2024 18:03:01.570,0.01,
11-02-1997 06:13:16.112,31819776,30-07-2024 18:03:01.570,0.01,
11-02-1997 06:13:16.112,31819776,30-07-2024 18:03:01.570,-0,
11-02-1997 06:13:16.112,31819776,30-07-2024 18:03:01.570,-0.01,
11-02-1997 06:13:16.112,31819776,30-07-2024 18:03:01.570,-0.02,
11-02-1997 06:13:16.112,31819776,30-07-2024 18:03:01.570,-0.03,
11-02-1997 06:13:16.112,31819776,30-07-2024 18:03:01.570,-0.04,
11-02-1997 06:13:16.112,31819776,30-07-2024 18:03:01.570,-0.04,
11-02-1997 06:13:16.112,31819776,30-07-2024 18:03:01.570,-0.05,
11-02-1997 06:13:16.112,31819776,30-07-2024 18:03:01.570,-0.06,
11-02-1997 06:13:16.112,31819776,30-07-2024 18:03:01.570,-0.07,
11-02-1997 06:13:16.112,31819776,30-07-2024 18:03:01.570,-0.08,
11-02-1997 06:13:16.112,31819776,30-07-2024 18:03:01.570,-0.09,
11-02-1997 06:13:16.112,31819776,30-07-2024 18:03:01.570,-0.09,
11-02-1997 06:13:16.112,31819776,30-07-2024 18:03:01.570,-0.1,
11-02-1997 06:13:16.112,31819776,30-07-2024 18:03:01.570,-0.1,
11-02-1997 06:13:16.112,31819776,30-07-2024 18:03:01.570,-0.1,
11-02-1997 06:13:16.112,31819776,30-07-2024 18:03:01.570,-0.1,
11-02-1997 06:13:16.112,31819776,30-07-2024 18:03:01.570,-0.11,
11-02-1997 06:13:16.112,31819776,30-07-2024 18:03:01.570,-0.11,
11-02-1997 06:13:16.112,31819776,30-07-2024 18:03:01.570,-0.1,
11-02-1997 06:13:16.112,31819776,30-07-2024 18:03:01.570,-0.1,
11-02-1997 06:13:16.112,31819776,30-07-2024 18:03:01.570,-0.1,
11-02-1997 06:13:16.112,31819776,30-07-2024 18:03:01.570,-0.1,
11-02-1997 06:13:16.112,31819776,30-07-2024 18:03:01.570,-0.1,
11-02-1997 06:13:16.112,31819776,30-07-2024 18:03:01.570,-0.1,
11-02-1997 06:13:16.112,31819776,30-07-2024 18:03:01.570,-0.1,
11-02-1997 06:13:16.112,31819776,30-07-2024 18:03:01.570,-0.1,
11-02-1997 06:13:16.112,31819776,30-07-2024 18:03:01.570,-0.1,
11-02-1997 06:13:16.112,31819776,30-07-2024 18:03:01.570,-0.1,
11-02-1997 06:13:16.112,31819776,30-07-2024 18:03:01.570,-0.1,
11-02-1997 06:13:16.112,31819776,30-07-2024 18:03:01.570,-0.1,
11-02-1997 06:13:16.112,31819776,30-07-2024 18:03:01.570,-0.1,
11-02-1997 06:13:16.112,31819776,30-07-2024 18:03:01.570,-0.1,
11-02-1997 06:13:16.112,31819776,30-07-2024 18:03:01.570,-0.1,
11-02-1997 06:13:16.112,31819776,30-07-2024 18:03:01.570,-0.09,
11-02-1997 06:13:16.112,31819776,30-07-2024 18:03:01.570,-0.09,
11-02-1997 06:13:16.112,31819776,30-07-2024 18:03:01.570,-0.09,
11-02-1997 06:13:16.112,31819776,30-07-2024 18:03:01.570,-0.09,
11-02-1997 06:13:16.112,31819776,30-07-2024 18:03:01.570,-0.09,
11-02-1997 06:13:16.112,31819776,30-07-2024 18:03:01.570,-0.09,
11-02-1997 06:13:16.368,31821824,30-07-2024 18:03:01.572,-0.09,
11-02-1997 06:13:16.368,31821824,30-07-2024 18:03:01.572,-0.09,
11-02-1997 06:13:16.368,31821824,30-07-2024 18:03:01.572,-0.08,
11-02-1997 06:13:16.368,31821824,30-07-2024 18:03:01.572,-0.08,
11-02-1997 06:13:16.368,31821824,30-07-2024 18:03:01.572,-0.08,
11-02-1997 06:13:16.368,31821824,30-07-2024 18:03:01.572,-0.09,
11-02-1997 06:13:16.368,31821824,30-07-2024 18:03:01.572,-0.09,
11-02-1997 06:13:16.368,31821824,30-07-2024 18:03:01.572,-0.09,
11-02-1997 06:13:16.368,31821824,30-07-2024 18:03:01.572,-0.09,
11-02-1997 06:13:16.368,31821824,30-07-2024 18:03:01.572,-0.09,
11-02-1997 06:13:16.368,31821824,30-07-2024 18:03:01.572,-0.08,
11-02-1997 06:13:16.368,31821824,30-07-2024 18:03:01.572,-0.08,
11-02-1997 06:13:16.368,31821824,30-07-2024 18:03:01.572,-0.08,
11-02-1997 06:13:16.368,31821824,30-07-2024 18:03:01.572,-0.08,
11-02-1997 06:13:16.368,31821824,30-07-2024 18:03:01.572,-0.08,
11-02-1997 06:13:16.368,31821824,30-07-2024 18:03:01.572,-0.08,
11-02-1997 06:13:16.368,31821824,30-07-2024 18:03:01.572,-0.08,
11-02-1997 06:13:16.368,31821824,30-07-2024 18:03:01.572,-0.08,
11-02-1997 06:13:16.368,31821824,30-07-2024 18:03:01.572,-0.08,
11-02-1997 06:13:16.368,31821824,30-07-2024 18:03:01.572,-0.08,
11-02-1997 06:13:16.368,31821824,30-07-2024 18:03:01.572,-0.08,
11-02-1997 06:13:16.368,31821824,30-07-2024 18:03:01.572,-0.08,
11-02-1997 06:13:16.368,31821824,30-07-2024 18:03:01.572,-0.08,
11-02-1997 06:13:16.368,31821824,30-07-2024 18:03:01.572,-0.08,
11-02-1997 06:13:16.368,31821824,30-07-2024 18:03:01.572,-0.08,
11-02-1997 06:13:16.368,31821824,30-07-2024 18:03:01.572,-0.08,
11-02-1997 06:13:16.368,31821824,30-07-2024 18:03:01.572,-0.08,
11-02-1997 06:13:16.368,31821824,30-07-2024 18:03:01.572,-0.08,
11-02-1997 06:13:16.368,31821824,30-07-2024 18:03:01.572,-0.08,
11-02-1997 06:13:16.368,31821824,30-07-2024 18:03:01.572,-0.08,
11-02-1997 06:13:16.368,31821824,30-07-2024 18:03:01.572,-0.08,
11-02-1997 06:13:16.368,31821824,30-07-2024 18:03:01.572,-0.08,
11-02-1997 06:13:16.368,31821824,30-07-2024 18:03:01.572,-0.08,
11-02-1997 06:13:16.368,31821824,30-07-2024 18:03:01.572,-0.08,
11-02-1997 06:13:16.368,31821824,30-07-2024 18:03:01.572,-0.08,
11-02-1997 06:13:16.368,31821824,30-07-2024 18:03:01.572,-0.08,
11-02-1997 06:13:16.368,31821824,30-07-2024 18:03:01.572,-0.08,
11-02-1997 06:13:16.368,31821824,30-07-2024 18:03:01.572,-0.08,
11-02-1997 06:13:16.368,31821824,30-07-2024 18:03:01.572,-0.08,
11-02-1997 06:13:16.368,31821824,30-07-2024 18:03:01.572,-0.08,
11-02-1997 06:13:16.368,31821824,30-07-2024 18:03:01.572,-0.07,
11-02-1997 06:13:16.368,31821824,30-07-2024 18:03:01.572,-0.07,
11-02-1997 06:13:16.368,31821824,30-07-2024 18:03:01.572,-0.07,
11-02-1997 06:13:16.368,31821824,30-07-2024 18:03:01.572,-0.07,
11-02-1997 06:13:16.368,31821824,30-07-2024 18:03:01.572,-0.07,
11-02-1997 06:13:16.368,31821824,30-07-2024 18:03:01.572,-0.08,
11-02-1997 06:13:16.368,31821824,30-07-2024 18:03:01.572,-0.08,
11-02-1997 06:13:16.368,31821824,30-07-2024 18:03:01.572,-0.08,
11-02-1997 06:13:16.368,31821824,30-07-2024 18:03:01.572,-0.08,
11-02-1997 06:13:16.368,31821824,30-07-2024 18:03:01.572,-0.08,
11-02-1997 06:13:16.368,31821824,30-07-2024 18:03:01.572,-0.08,
11-02-1997 06:13:16.368,31821824,30-07-2024 18:03:01.572,-0.08,
11-02-1997 06:13:16.368,31821824,30-07-2024 18:03:01.572,-0.07,
11-02-1997 06:13:16.368,31821824,30-07-2024 18:03:01.572,-0.07,
11-02-1997 06:13:16.368,31821824,30-07-2024 18:03:01.572,-0.07,
11-02-1997 06:13:16.368,31821824,30-07-2024 18:03:01.572,-0.07,
11-02-1997 06:13:16.368,31821824,30-07-2024 18:03:01.572,-0.08,
11-02-1997 06:13:16.368,31821824,30-07-2024 18:03:01.572,-0.08,
11-02-1997 06:13:16.368,31821824,30-07-2024 18:03:01.572,-0.07,
11-02-1997 06:13:16.368,31821824,30-07-2024 18:03:01.572,-0.07,
11-02-1997 06:13:16.368,31821824,30-07-2024 18:03:01.572,-0.07,
11-02-1997 06:13:16.368,31821824,30-07-2024 18:03:01.572,-0.07,
11-02-1997 06:13:16.368,31821824,30-07-2024 18:03:01.572,-0.07,
11-02-1997 06:13:16.368,31821824,30-07-2024 18:03:01.572,-0.07,
11-02-1997 06:13:16.368,31821824,30-07-2024 18:03:01.572,-0.07,
