11-02-1997 06:13:12.784,31793152,30-07-2024 18:02:58.492,-0.04,
11-02-1997 06:13:12.784,31793152,30-07-2024 18:02:58.492,-0.04,
11-02-1997 06:13:12.784,31793152,30-07-2024 18:02:58.492,-0.03,
11-02-1997 06:13:12.784,31793152,30-07-2024 18:02:58.492,-0.03,
11-02-1997 06:13:12.784,31793152,30-07-2024 18:02:58.492,-0.02,
11-02-1997 06:13:12.784,31793152,30-07-2024 18:02:58.492,-0.01,
11-02-1997 06:13:12.784,31793152,30-07-2024 18:02:58.492,-0.01,
11-02-1997 06:13:12.784,31793152,30-07-2024 18:02:58.492,0,
11-02-1997 06:13:12.784,31793152,30-07-2024 18:02:58.492,0,
11-02-1997 06:13:12.784,31793152,30-07-2024 18:02:58.492,0.01,
11-02-1997 06:13:12.784,31793152,30-07-2024 18:02:58.492,0.02,
11-02-1997 06:13:12.784,31793152,30-07-2024 18:02:58.492,0.03,
11-02-1997 06:13:12.784,31793152,30-07-2024 18:02:58.492,0.03,
11-02-1997 06:13:12.784,31793152,30-07-2024 18:02:58.492,0.04,
11-02-1997 06:13:12.784,31793152,30-07-2024 18:02:58.492,0.05,
11-02-1997 06:13:12.784,31793152,30-07-2024 18:02:58.492,0.04,
11-02-1997 06:13:12.784,31793152,30-07-2024 18:02:58.492,0.06,
11-02-1997 06:13:12.784,31793152,30-07-2024 18:02:58.492,0.06,
11-02-1997 06:13:12.784,31793152,30-07-2024 18:02:58.492,0.06,
11-02-1997 06:13:12.784,31793152,30-07-2024 18:02:58.492,0.06,
11-02-1997 06:13:12.784,31793152,30-07-2024 18:02:58.492,0.06,
11-02-1997 06:13:12.784,31793152,30-07-2024 18:02:58.492,0.06,
11-02-1997 06:13:12.784,31793152,30-07-2024 18:02:58.492,0.06,
11-02-1997 06:13:12.784,31793152,30-07-2024 18:02:58.492,0.06,
11-02-1997 06:13:12.784,31793152,30-07-2024 18:02:58.492,0.06,
11-02-1997 06:13:12.784,31793152,30-07-2024 18:02:58.492,0.06,
11-02-1997 06:13:12.784,31793152,30-07-2024 18:02:58.492,0.04,
11-02-1997 06:13:12.784,31793152,30-07-2024 18:02:58.492,0.04,
11-02-1997 06:13:12.784,31793152,30-07-2024 18:02:58.492,0.03,
11-02-1997 06:13:12.784,31793152,30-07-2024 18:02:58.492,0.02,
11-02-1997 06:13:12.784,31793152,30-07-2024 18:02:58.492,0.02,
11-02-1997 06:13:12.784,31793152,30-07-2024 18:02:58.492,0.02,
11-02-1997 06:13:12.784,31793152,30-07-2024 18:02:58.492,0,
11-02-1997 06:13:12.784,31793152,30-07-2024 18:02:58.492,0,
11-02-1997 06:13:12.784,31793152,30-07-2024 18:02:58.492,-0.01,
11-02-1997 06:13:12.784,31793152,30-07-2024 18:02:58.492,-0.01,
11-02-1997 06:13:12.784,31793152,30-07-2024 18:02:58.492,-0.01,
11-02-1997 06:13:12.784,31793152,30-07-2024 18:02:58.492,-0.03,
11-02-1997 06:13:12.784,31793152,30-07-2024 18:02:58.492,-0.02,
11-02-1997 06:13:12.784,31793152,30-07-2024 18:02:58.492,-0.03,
11-02-1997 06:13:12.784,31793152,30-07-2024 18:02:58.492,-0.05,
11-02-1997 06:13:12.784,31793152,30-07-2024 18:02:58.492,-0.05,
11-02-1997 06:13:12.784,31793152,30-07-2024 18:02:58.492,-0.05,
11-02-1997 06:13:12.784,31793152,30-07-2024 18:02:58.492,-0.06,
11-02-1997 06:13:12.784,31793152,30-07-2024 18:02:58.492,-0.06,
11-02-1997 06:13:12.784,31793152,30-07-2024 18:02:58.492,-0.06,
11-02-1997 06:13:12.784,31793152,30-07-2024 18:02:58.492,-0.05,
11-02-1997 06:13:12.784,31793152,30-07-2024 18:02:58.492,-0.05,
11-02-1997 06:13:12.784,31793152,30-07-2024 18:02:58.492,-0.04,
11-02-1997 06:13:12.784,31793152,30-07-2024 18:02:58.492,-0.04,
11-02-1997 06:13:12.784,31793152,30-07-2024 18:02:58.492,-0.04,
11-02-1997 06:13:12.784,31793152,30-07-2024 18:02:58.492,-0.04,
11-02-1997 06:13:12.784,31793152,30-07-2024 18:02:58.492,-0.04,
11-02-1997 06:13:12.784,31793152,30-07-2024 18:02:58.492,-0.04,
11-02-1997 06:13:12.784,31793152,30-07-2024 18:02:58.492,-0.04,
11-02-1997 06:13:12.784,31793152,30-07-2024 18:02:58.492,-0.04,
11-02-1997 06:13:12.784,31793152,30-07-2024 18:02:58.492,-0.04,
11-02-1997 06:13:12.784,31793152,30-07-2024 18:02:58.492,-0.04,
11-02-1997 06:13:12.784,31793152,30-07-2024 18:02:58.492,-0.05,
11-02-1997 06:13:12.784,31793152,30-07-2024 18:02:58.492,-0.05,
11-02-1997 06:13:12.784,31793152,30-07-2024 18:02:58.492,-0.05,
11-02-1997 06:13:12.784,31793152,30-07-2024 18:02:58.492,-0.05,
11-02-1997 06:13:12.784,31793152,30-07-2024 18:02:58.492,-0.05,
11-02-1997 06:13:12.784,31793152,30-07-2024 18:02:58.492,-0.03,
11-02-1997 06:13:12.784,31793152,30-07-2024 18:02:58.492,-0.03,
11-02-1997 06:13:12.784,31793152,30-07-2024 18:02:58.492,-0.03,
11-02-1997 06:13:12.784,31793152,30-07-2024 18:02:58.492,-0.04,
11-02-1997 06:13:12.784,31793152,30-07-2024 18:02:58.492,-0.04,
11-02-1997 06:13:12.784,31793152,30-07-2024 18:02:58.492,-0.04,
11-02-1997 06:13:12.784,31793152,30-07-2024 18:02:58.492,-0.04,
11-02-1997 06:13:12.784,31793152,30-07-2024 18:02:58.492,-0.04,
11-02-1997 06:13:12.784,31793152,30-07-2024 18:02:58.492,-0.04,
11-02-1997 06:13:12.784,31793152,30-07-2024 18:02:58.492,-0.04,
11-02-1997 06:13:12.784,31793152,30-07-2024 18:02:58.492,-0.04,
11-02-1997 06:13:12.784,31793152,30-07-2024 18:02:58.492,-0.04,
11-02-1997 06:13:12.784,31793152,30-07-2024 18:02:58.492,-0.05,
11-02-1997 06:13:12.784,31793152,30-07-2024 18:02:58.492,-0.05,
11-02-1997 06:13:12.784,31793152,30-07-2024 18:02:58.492,-0.05,
11-02-1997 06:13:12.784,31793152,30-07-2024 18:02:58.492,-0.05,
11-02-1997 06:13:12.784,31793152,30-07-2024 18:02:58.492,-0.05,
11-02-1997 06:13:12.784,31793152,30-07-2024 18:02:58.492,-0.07,
11-02-1997 06:13:12.784,31793152,30-07-2024 18:02:58.492,-0.09,
11-02-1997 06:13:12.784,31793152,30-07-2024 18:02:58.492,-0.1,
11-02-1997 06:13:12.784,31793152,30-07-2024 18:02:58.492,-0.13,
11-02-1997 06:13:12.784,31793152,30-07-2024 18:02:58.492,-0.14,
11-02-1997 06:13:12.784,31793152,30-07-2024 18:02:58.492,-0.16,
11-02-1997 06:13:12.784,31793152,30-07-2024 18:02:58.492,-0.14,
11-02-1997 06:13:12.784,31793152,30-07-2024 18:02:58.492,-0.12,
11-02-1997 06:13:12.784,31793152,30-07-2024 18:02:58.492,-0.08,
11-02-1997 06:13:12.784,31793152,30-07-2024 18:02:58.492,-0.02,
11-02-1997 06:13:12.784,31793152,30-07-2024 18:02:58.492,0.04,
11-02-1997 06:13:12.784,31793152,30-07-2024 18:02:58.492,0.13,
11-02-1997 06:13:12.784,31793152,30-07-2024 18:02:58.492,0.2,
11-02-1997 06:13:12.784,31793152,30-07-2024 18:02:58.492,0.29,
11-02-1997 06:13:12.784,31793152,30-07-2024 18:02:58.492,0.37,
11-02-1997 06:13:12.784,31793152,30-07-2024 18:02:58.492,0.45,
11-02-1997 06:13:12.784,31793152,30-07-2024 18:02:58.492,0.53,
11-02-1997 06:13:12.784,31793152,30-07-2024 18:02:58.492,0.59,
11-02-1997 06:13:12.784,31793152,30-07-2024 18:02:58.492,0.63,
11-02-1997 06:13:12.784,31793152,30-07-2024 18:02:58.492,0.62,
11-02-1997 06:13:12.784,31793152,30-07-2024 18:02:58.492,0.59,
11-02-1997 06:13:12.784,31793152,30-07-2024 18:02:58.492,0.53,
11-02-1997 06:13:12.784,31793152,30-07-2024 18:02:58.492,0.46,
11-02-1997 06:13:12.784,31793152,30-07-2024 18:02:58.492,0.39,
11-02-1997 06:13:12.784,31793152,30-07-2024 18:02:58.492,0.32,
11-02-1997 06:13:12.784,31793152,30-07-2024 18:02:58.492,0.24,
11-02-1997 06:13:12.784,31793152,30-07-2024 18:02:58.492,0.15,
11-02-1997 06:13:12.784,31793152,30-07-2024 18:02:58.492,0.06,
11-02-1997 06:13:12.784,31793152,30-07-2024 18:02:58.492,-0.02,
11-02-1997 06:13:12.784,31793152,30-07-2024 18:02:58.492,-0.05,
11-02-1997 06:13:12.784,31793152,30-07-2024 18:02:58.492,-0.08,
11-02-1997 06:13:12.784,31793152,30-07-2024 18:02:58.492,-0.11,
11-02-1997 06:13:12.784,31793152,30-07-2024 18:02:58.492,-0.13,
11-02-1997 06:13:12.784,31793152,30-07-2024 18:02:58.492,-0.14,
11-02-1997 06:13:12.784,31793152,30-07-2024 18:02:58.492,-0.14,
11-02-1997 06:13:12.784,31793152,30-07-2024 18:02:58.492,-0.13,
11-02-1997 06:13:12.784,31793152,30-07-2024 18:02:58.492,-0.11,
11-02-1997 06:13:12.784,31793152,30-07-2024 18:02:58.492,-0.09,
11-02-1997 06:13:12.784,31793152,30-07-2024 18:02:58.492,-0.08,
11-02-1997 06:13:12.784,31793152,30-07-2024 18:02:58.492,-0.06,
11-02-1997 06:13:12.784,31793152,30-07-2024 18:02:58.492,-0.07,
11-02-1997 06:13:12.784,31793152,30-07-2024 18:02:58.492,-0.06,
11-02-1997 06:13:12.784,31793152,30-07-2024 18:02:58.492,-0.06,
11-02-1997 06:13:12.784,31793152,30-07-2024 18:02:58.492,-0.06,
11-02-1997 06:13:12.784,31793152,30-07-2024 18:02:58.492,-0.07,
11-02-1997 06:13:12.784,31793152,30-07-2024 18:02:58.492,-0.07,
11-02-1997 06:13:12.784,31793152,30-07-2024 18:02:58.492,-0.07,
11-02-1997 06:13:12.784,31793152,30-07-2024 18:02:58.492,-0.07,
11-02-1997 06:13:13.040,31795200,30-07-2024 18:02:58.497,-0.07,
11-02-1997 06:13:13.040,31795200,30-07-2024 18:02:58.497,-0.06,
11-02-1997 06:13:13.040,31795200,30-07-2024 18:02:58.497,-0.06,
11-02-1997 06:13:13.040,31795200,30-07-2024 18:02:58.497,-0.07,
11-02-1997 06:13:13.040,31795200,30-07-2024 18:02:58.497,-0.07,
11-02-1997 06:13:13.040,31795200,30-07-2024 18:02:58.497,-0.06,
11-02-1997 06:13:13.040,31795200,30-07-2024 18:02:58.497,-0.07,
11-02-1997 06:13:13.040,31795200,30-07-2024 18:02:58.497,-0.07,
11-02-1997 06:13:13.040,31795200,30-07-2024 18:02:58.497,-0.07,
11-02-1997 06:13:13.040,31795200,30-07-2024 18:02:58.497,-0.07,
11-02-1997 06:13:13.040,31795200,30-07-2024 18:02:58.497,-0.07,
11-02-1997 06:13:13.040,31795200,30-07-2024 18:02:58.497,-0.06,
11-02-1997 06:13:13.040,31795200,30-07-2024 18:02:58.497,-0.06,
11-02-1997 06:13:13.040,31795200,30-07-2024 18:02:58.497,-0.06,
11-02-1997 06:13:13.040,31795200,30-07-2024 18:02:58.497,-0.06,
11-02-1997 06:13:13.040,31795200,30-07-2024 18:02:58.497,-0.07,
11-02-1997 06:13:13.040,31795200,30-07-2024 18:02:58.497,-0.07,
11-02-1997 06:13:13.040,31795200,30-07-2024 18:02:58.497,-0.06,
11-02-1997 06:13:13.040,31795200,30-07-2024 18:02:58.497,-0.06,
11-02-1997 06:13:13.040,31795200,30-07-2024 18:02:58.497,-0.06,
11-02-1997 06:13:13.040,31795200,30-07-2024 18:02:58.497,-0.06,
11-02-1997 06:13:13.040,31795200,30-07-2024 18:02:58.497,-0.06,
11-02-1997 06:13:13.040,31795200,30-07-2024 18:02:58.497,-0.06,
11-02-1997 06:13:13.040,31795200,30-07-2024 18:02:58.497,-0.06,
11-02-1997 06:13:13.040,31795200,30-07-2024 18:02:58.497,-0.05,
11-02-1997 06:13:13.040,31795200,30-07-2024 18:02:58.497,-0.06,
11-02-1997 06:13:13.040,31795200,30-07-2024 18:02:58.497,-0.06,
11-02-1997 06:13:13.040,31795200,30-07-2024 18:02:58.497,-0.06,
11-02-1997 06:13:13.040,31795200,30-07-2024 18:02:58.497,-0.06,
11-02-1997 06:13:13.040,31795200,30-07-2024 18:02:58.497,-0.06,
11-02-1997 06:13:13.040,31795200,30-07-2024 18:02:58.497,-0.06,
11-02-1997 06:13:13.040,31795200,30-07-2024 18:02:58.497,-0.06,
11-02-1997 06:13:13.040,31795200,30-07-2024 18:02:58.497,-0.06,
11-02-1997 06:13:13.040,31795200,30-07-2024 18:02:58.497,-0.06,
11-02-1997 06:13:13.040,31795200,30-07-2024 18:02:58.497,-0.06,
11-02-1997 06:13:13.040,31795200,30-07-2024 18:02:58.497,-0.06,
11-02-1997 06:13:13.040,31795200,30-07-2024 18:02:58.497,-0.06,
11-02-1997 06:13:13.040,31795200,30-07-2024 18:02:58.497,-0.06,
11-02-1997 06:13:13.040,31795200,30-07-2024 18:02:58.497,-0.06,
11-02-1997 06:13:13.040,31795200,30-07-2024 18:02:58.497,-0.06,
11-02-1997 06:13:13.040,31795200,30-07-2024 18:02:58.497,-0.05,
11-02-1997 06:13:13.040,31795200,30-07-2024 18:02:58.497,-0.05,
11-02-1997 06:13:13.040,31795200,30-07-2024 18:02:58.497,-0.06,
11-02-1997 06:13:13.040,31795200,30-07-2024 18:02:58.497,-0.06,
11-02-1997 06:13:13.040,31795200,30-07-2024 18:02:58.497,-0.06,
11-02-1997 06:13:13.040,31795200,30-07-2024 18:02:58.497,-0.06,
11-02-1997 06:13:13.040,31795200,30-07-2024 18:02:58.497,-0.06,
11-02-1997 06:13:13.040,31795200,30-07-2024 18:02:58.497,-0.06,
11-02-1997 06:13:13.040,31795200,30-07-2024 18:02:58.497,-0.05,
11-02-1997 06:13:13.040,31795200,30-07-2024 18:02:58.497,-0.06,
11-02-1997 06:13:13.040,31795200,30-07-2024 18:02:58.497,-0.05,
11-02-1997 06:13:13.040,31795200,30-07-2024 18:02:58.497,-0.06,
11-02-1997 06:13:13.040,31795200,30-07-2024 18:02:58.497,-0.05,
11-02-1997 06:13:13.040,31795200,30-07-2024 18:02:58.497,-0.04,
11-02-1997 06:13:13.040,31795200,30-07-2024 18:02:58.497,-0.03,
11-02-1997 06:13:13.040,31795200,30-07-2024 18:02:58.497,-0.03,
11-02-1997 06:13:13.040,31795200,30-07-2024 18:02:58.497,-0.03,
11-02-1997 06:13:13.040,31795200,30-07-2024 18:02:58.497,-0.02,
11-02-1997 06:13:13.040,31795200,30-07-2024 18:02:58.497,-0.01,
11-02-1997 06:13:13.040,31795200,30-07-2024 18:02:58.497,-0.01,
11-02-1997 06:13:13.040,31795200,30-07-2024 18:02:58.497,0.01,
11-02-1997 06:13:13.040,31795200,30-07-2024 18:02:58.497,0.02,
11-02-1997 06:13:13.040,31795200,30-07-2024 18:02:58.497,0.02,
11-02-1997 06:13:13.040,31795200,30-07-2024 18:02:58.497,0.03,
11-02-1997 06:13:13.040,31795200,30-07-2024 18:02:58.497,0.04,
11-02-1997 06:13:13.040,31795200,30-07-2024 18:02:58.497,0.04,
11-02-1997 06:13:13.040,31795200,30-07-2024 18:02:58.497,0.05,
11-02-1997 06:13:13.040,31795200,30-07-2024 18:02:58.497,0.06,
11-02-1997 06:13:13.040,31795200,30-07-2024 18:02:58.497,0.07,
11-02-1997 06:13:13.040,31795200,30-07-2024 18:02:58.497,0.08,
11-02-1997 06:13:13.040,31795200,30-07-2024 18:02:58.497,0.08,
11-02-1997 06:13:13.040,31795200,30-07-2024 18:02:58.497,0.08,
11-02-1997 06:13:13.040,31795200,30-07-2024 18:02:58.497,0.09,
11-02-1997 06:13:13.040,31795200,30-07-2024 18:02:58.497,0.1,
11-02-1997 06:13:13.040,31795200,30-07-2024 18:02:58.497,0.1,
11-02-1997 06:13:13.040,31795200,30-07-2024 18:02:58.497,0.11,
11-02-1997 06:13:13.040,31795200,30-07-2024 18:02:58.497,0.11,
11-02-1997 06:13:13.040,31795200,30-07-2024 18:02:58.497,0.12,
11-02-1997 06:13:13.040,31795200,30-07-2024 18:02:58.497,0.14,
11-02-1997 06:13:13.040,31795200,30-07-2024 18:02:58.497,0.14,
11-02-1997 06:13:13.040,31795200,30-07-2024 18:02:58.497,0.14,
11-02-1997 06:13:13.040,31795200,30-07-2024 18:02:58.497,0.14,
11-02-1997 06:13:13.040,31795200,30-07-2024 18:02:58.497,0.15,
11-02-1997 06:13:13.040,31795200,30-07-2024 18:02:58.497,0.15,
11-02-1997 06:13:13.040,31795200,30-07-2024 18:02:58.497,0.15,
11-02-1997 06:13:13.040,31795200,30-07-2024 18:02:58.497,0.14,
11-02-1997 06:13:13.040,31795200,30-07-2024 18:02:58.497,0.15,
11-02-1997 06:13:13.040,31795200,30-07-2024 18:02:58.497,0.15,
11-02-1997 06:13:13.040,31795200,30-07-2024 18:02:58.497,0.15,
11-02-1997 06:13:13.040,31795200,30-07-2024 18:02:58.497,0.15,
11-02-1997 06:13:13.040,31795200,30-07-2024 18:02:58.497,0.14,
11-02-1997 06:13:13.040,31795200,30-07-2024 18:02:58.497,0.15,
11-02-1997 06:13:13.040,31795200,30-07-2024 18:02:58.497,0.15,
11-02-1997 06:13:13.040,31795200,30-07-2024 18:02:58.497,0.14,
11-02-1997 06:13:13.040,31795200,30-07-2024 18:02:58.497,0.14,
11-02-1997 06:13:13.040,31795200,30-07-2024 18:02:58.497,0.14,
11-02-1997 06:13:13.040,31795200,30-07-2024 18:02:58.497,0.14,
11-02-1997 06:13:13.040,31795200,30-07-2024 18:02:58.497,0.14,
11-02-1997 06:13:13.040,31795200,30-07-2024 18:02:58.497,0.14,
11-02-1997 06:13:13.040,31795200,30-07-2024 18:02:58.497,0.14,
11-02-1997 06:13:13.040,31795200,30-07-2024 18:02:58.497,0.13,
11-02-1997 06:13:13.040,31795200,30-07-2024 18:02:58.497,0.12,
11-02-1997 06:13:13.040,31795200,30-07-2024 18:02:58.497,0.12,
11-02-1997 06:13:13.040,31795200,30-07-2024 18:02:58.497,0.11,
11-02-1997 06:13:13.040,31795200,30-07-2024 18:02:58.497,0.11,
11-02-1997 06:13:13.040,31795200,30-07-2024 18:02:58.497,0.11,
11-02-1997 06:13:13.040,31795200,30-07-2024 18:02:58.497,0.1,
11-02-1997 06:13:13.040,31795200,30-07-2024 18:02:58.497,0.1,
11-02-1997 06:13:13.040,31795200,30-07-2024 18:02:58.497,0.09,
11-02-1997 06:13:13.040,31795200,30-07-2024 18:02:58.497,0.08,
11-02-1997 06:13:13.040,31795200,30-07-2024 18:02:58.497,0.07,
11-02-1997 06:13:13.040,31795200,30-07-2024 18:02:58.497,0.06,
11-02-1997 06:13:13.040,31795200,30-07-2024 18:02:58.497,0.05,
11-02-1997 06:13:13.040,31795200,30-07-2024 18:02:58.497,0.04,
11-02-1997 06:13:13.040,31795200,30-07-2024 18:02:58.497,0.04,
11-02-1997 06:13:13.040,31795200,30-07-2024 18:02:58.497,0.04,
11-02-1997 06:13:13.040,31795200,30-07-2024 18:02:58.497,0.02,
11-02-1997 06:13:13.040,31795200,30-07-2024 18:02:58.497,0.02,
11-02-1997 06:13:13.040,31795200,30-07-2024 18:02:58.497,0.01,
11-02-1997 06:13:13.040,31795200,30-07-2024 18:02:58.497,0,
11-02-1997 06:13:13.040,31795200,30-07-2024 18:02:58.497,-0.01,
11-02-1997 06:13:13.040,31795200,30-07-2024 18:02:58.497,-0.01,
11-02-1997 06:13:13.040,31795200,30-07-2024 18:02:58.497,-0.02,
11-02-1997 06:13:13.040,31795200,30-07-2024 18:02:58.497,-0.03,
11-02-1997 06:13:13.040,31795200,30-07-2024 18:02:58.497,-0.04,
11-02-1997 06:13:13.040,31795200,30-07-2024 18:02:58.497,-0.05,
11-02-1997 06:13:13.040,31795200,30-07-2024 18:02:58.497,-0.06,
11-02-1997 06:13:13.040,31795200,30-07-2024 18:02:58.497,-0.06,
11-02-1997 06:13:13.296,31797248,30-07-2024 18:02:58.500,-0.07,
11-02-1997 06:13:13.296,31797248,30-07-2024 18:02:58.500,-0.07,
11-02-1997 06:13:13.296,31797248,30-07-2024 18:02:58.500,-0.08,
11-02-1997 06:13:13.296,31797248,30-07-2024 18:02:58.500,-0.08,
11-02-1997 06:13:13.296,31797248,30-07-2024 18:02:58.500,-0.08,
11-02-1997 06:13:13.296,31797248,30-07-2024 18:02:58.500,-0.08,
11-02-1997 06:13:13.296,31797248,30-07-2024 18:02:58.500,-0.08,
11-02-1997 06:13:13.296,31797248,30-07-2024 18:02:58.500,-0.08,
11-02-1997 06:13:13.296,31797248,30-07-2024 18:02:58.500,-0.08,
11-02-1997 06:13:13.296,31797248,30-07-2024 18:02:58.500,-0.08,
11-02-1997 06:13:13.296,31797248,30-07-2024 18:02:58.500,-0.08,
11-02-1997 06:13:13.296,31797248,30-07-2024 18:02:58.500,-0.07,
11-02-1997 06:13:13.296,31797248,30-07-2024 18:02:58.500,-0.07,
11-02-1997 06:13:13.296,31797248,30-07-2024 18:02:58.500,-0.07,
11-02-1997 06:13:13.296,31797248,30-07-2024 18:02:58.500,-0.07,
11-02-1997 06:13:13.296,31797248,30-07-2024 18:02:58.500,-0.08,
11-02-1997 06:13:13.296,31797248,30-07-2024 18:02:58.500,-0.07,
11-02-1997 06:13:13.296,31797248,30-07-2024 18:02:58.500,-0.08,
11-02-1997 06:13:13.296,31797248,30-07-2024 18:02:58.500,-0.07,
11-02-1997 06:13:13.296,31797248,30-07-2024 18:02:58.500,-0.07,
11-02-1997 06:13:13.296,31797248,30-07-2024 18:02:58.500,-0.07,
11-02-1997 06:13:13.296,31797248,30-07-2024 18:02:58.500,-0.07,
11-02-1997 06:13:13.296,31797248,30-07-2024 18:02:58.500,-0.08,
11-02-1997 06:13:13.296,31797248,30-07-2024 18:02:58.500,-0.08,
11-02-1997 06:13:13.296,31797248,30-07-2024 18:02:58.500,-0.07,
11-02-1997 06:13:13.296,31797248,30-07-2024 18:02:58.500,-0.07,
11-02-1997 06:13:13.296,31797248,30-07-2024 18:02:58.500,-0.07,
11-02-1997 06:13:13.296,31797248,30-07-2024 18:02:58.500,-0.07,
11-02-1997 06:13:13.296,31797248,30-07-2024 18:02:58.500,-0.07,
11-02-1997 06:13:13.296,31797248,30-07-2024 18:02:58.500,-0.08,
11-02-1997 06:13:13.296,31797248,30-07-2024 18:02:58.500,-0.07,
11-02-1997 06:13:13.296,31797248,30-07-2024 18:02:58.500,-0.07,
11-02-1997 06:13:13.296,31797248,30-07-2024 18:02:58.500,-0.06,
11-02-1997 06:13:13.296,31797248,30-07-2024 18:02:58.500,-0.06,
11-02-1997 06:13:13.296,31797248,30-07-2024 18:02:58.500,-0.06,
11-02-1997 06:13:13.296,31797248,30-07-2024 18:02:58.500,-0.06,
11-02-1997 06:13:13.296,31797248,30-07-2024 18:02:58.500,-0.07,
11-02-1997 06:13:13.296,31797248,30-07-2024 18:02:58.500,-0.07,
11-02-1997 06:13:13.296,31797248,30-07-2024 18:02:58.500,-0.07,
11-02-1997 06:13:13.296,31797248,30-07-2024 18:02:58.500,-0.07,
11-02-1997 06:13:13.296,31797248,30-07-2024 18:02:58.500,-0.07,
11-02-1997 06:13:13.296,31797248,30-07-2024 18:02:58.500,-0.07,
11-02-1997 06:13:13.296,31797248,30-07-2024 18:02:58.500,-0.07,
11-02-1997 06:13:13.296,31797248,30-07-2024 18:02:58.500,-0.08,
11-02-1997 06:13:13.296,31797248,30-07-2024 18:02:58.500,-0.08,
11-02-1997 06:13:13.296,31797248,30-07-2024 18:02:58.500,-0.07,
11-02-1997 06:13:13.296,31797248,30-07-2024 18:02:58.500,-0.07,
11-02-1997 06:13:13.296,31797248,30-07-2024 18:02:58.500,-0.07,
11-02-1997 06:13:13.296,31797248,30-07-2024 18:02:58.500,-0.06,
11-02-1997 06:13:13.296,31797248,30-07-2024 18:02:58.500,-0.06,
11-02-1997 06:13:13.296,31797248,30-07-2024 18:02:58.500,-0.07,
11-02-1997 06:13:13.296,31797248,30-07-2024 18:02:58.500,-0.07,
11-02-1997 06:13:13.296,31797248,30-07-2024 18:02:58.500,-0.07,
11-02-1997 06:13:13.296,31797248,30-07-2024 18:02:58.500,-0.07,
11-02-1997 06:13:13.296,31797248,30-07-2024 18:02:58.500,-0.07,
11-02-1997 06:13:13.296,31797248,30-07-2024 18:02:58.500,-0.07,
11-02-1997 06:13:13.296,31797248,30-07-2024 18:02:58.500,-0.07,
11-02-1997 06:13:13.296,31797248,30-07-2024 18:02:58.500,-0.07,
11-02-1997 06:13:13.296,31797248,30-07-2024 18:02:58.500,-0.07,
11-02-1997 06:13:13.296,31797248,30-07-2024 18:02:58.500,-0.07,
11-02-1997 06:13:13.296,31797248,30-07-2024 18:02:58.500,-0.07,
11-02-1997 06:13:13.296,31797248,30-07-2024 18:02:58.500,-0.07,
11-02-1997 06:13:13.296,31797248,30-07-2024 18:02:58.500,-0.07,
11-02-1997 06:13:13.296,31797248,30-07-2024 18:02:58.500,-0.07,
11-02-1997 06:13:13.296,31797248,30-07-2024 18:02:58.500,-0.07,
11-02-1997 06:13:13.296,31797248,30-07-2024 18:02:58.500,-0.07,
11-02-1997 06:13:13.296,31797248,30-07-2024 18:02:58.500,-0.07,
11-02-1997 06:13:13.296,31797248,30-07-2024 18:02:58.500,-0.07,
11-02-1997 06:13:13.296,31797248,30-07-2024 18:02:58.500,-0.07,
11-02-1997 06:13:13.296,31797248,30-07-2024 18:02:58.500,-0.06,
11-02-1997 06:13:13.296,31797248,30-07-2024 18:02:58.500,-0.06,
11-02-1997 06:13:13.296,31797248,30-07-2024 18:02:58.500,-0.06,
11-02-1997 06:13:13.296,31797248,30-07-2024 18:02:58.500,-0.06,
11-02-1997 06:13:13.296,31797248,30-07-2024 18:02:58.500,-0.06,
11-02-1997 06:13:13.296,31797248,30-07-2024 18:02:58.500,-0.06,
11-02-1997 06:13:13.296,31797248,30-07-2024 18:02:58.500,-0.06,
11-02-1997 06:13:13.296,31797248,30-07-2024 18:02:58.500,-0.06,
11-02-1997 06:13:13.296,31797248,30-07-2024 18:02:58.500,-0.06,
11-02-1997 06:13:13.296,31797248,30-07-2024 18:02:58.500,-0.06,
11-02-1997 06:13:13.296,31797248,30-07-2024 18:02:58.500,-0.06,
11-02-1997 06:13:13.296,31797248,30-07-2024 18:02:58.500,-0.06,
11-02-1997 06:13:13.296,31797248,30-07-2024 18:02:58.500,-0.06,
11-02-1997 06:13:13.296,31797248,30-07-2024 18:02:58.500,-0.06,
11-02-1997 06:13:13.296,31797248,30-07-2024 18:02:58.500,-0.06,
11-02-1997 06:13:13.296,31797248,30-07-2024 18:02:58.500,-0.06,
11-02-1997 06:13:13.296,31797248,30-07-2024 18:02:58.500,-0.06,
11-02-1997 06:13:13.296,31797248,30-07-2024 18:02:58.500,-0.06,
11-02-1997 06:13:13.296,31797248,30-07-2024 18:02:58.500,-0.06,
11-02-1997 06:13:13.296,31797248,30-07-2024 18:02:58.500,-0.06,
11-02-1997 06:13:13.296,31797248,30-07-2024 18:02:58.500,-0.06,
11-02-1997 06:13:13.296,31797248,30-07-2024 18:02:58.500,-0.07,
11-02-1997 06:13:13.296,31797248,30-07-2024 18:02:58.500,-0.06,
11-02-1997 06:13:13.296,31797248,30-07-2024 18:02:58.500,-0.06,
11-02-1997 06:13:13.296,31797248,30-07-2024 18:02:58.500,-0.06,
11-02-1997 06:13:13.296,31797248,30-07-2024 18:02:58.500,-0.06,
11-02-1997 06:13:13.296,31797248,30-07-2024 18:02:58.500,-0.06,
11-02-1997 06:13:13.296,31797248,30-07-2024 18:02:58.500,-0.06,
11-02-1997 06:13:13.296,31797248,30-07-2024 18:02:58.500,-0.06,
11-02-1997 06:13:13.296,31797248,30-07-2024 18:02:58.500,-0.06,
11-02-1997 06:13:13.296,31797248,30-07-2024 18:02:58.500,-0.06,
11-02-1997 06:13:13.296,31797248,30-07-2024 18:02:58.500,-0.06,
11-02-1997 06:13:13.296,31797248,30-07-2024 18:02:58.500,-0.06,
11-02-1997 06:13:13.296,31797248,30-07-2024 18:02:58.500,-0.05,
11-02-1997 06:13:13.296,31797248,30-07-2024 18:02:58.500,-0.06,
11-02-1997 06:13:13.296,31797248,30-07-2024 18:02:58.500,-0.06,
11-02-1997 06:13:13.296,31797248,30-07-2024 18:02:58.500,-0.06,
11-02-1997 06:13:13.296,31797248,30-07-2024 18:02:58.500,-0.06,
11-02-1997 06:13:13.296,31797248,30-07-2024 18:02:58.500,-0.06,
11-02-1997 06:13:13.296,31797248,30-07-2024 18:02:58.500,-0.06,
11-02-1997 06:13:13.296,31797248,30-07-2024 18:02:58.500,-0.05,
11-02-1997 06:13:13.296,31797248,30-07-2024 18:02:58.500,-0.05,
11-02-1997 06:13:13.296,31797248,30-07-2024 18:02:58.500,-0.05,
11-02-1997 06:13:13.296,31797248,30-07-2024 18:02:58.500,-0.05,
11-02-1997 06:13:13.296,31797248,30-07-2024 18:02:58.500,-0.05,
11-02-1997 06:13:13.296,31797248,30-07-2024 18:02:58.500,-0.05,
11-02-1997 06:13:13.296,31797248,30-07-2024 18:02:58.500,-0.04,
11-02-1997 06:13:13.296,31797248,30-07-2024 18:02:58.500,-0.04,
11-02-1997 06:13:13.296,31797248,30-07-2024 18:02:58.500,-0.05,
11-02-1997 06:13:13.296,31797248,30-07-2024 18:02:58.500,-0.05,
11-02-1997 06:13:13.296,31797248,30-07-2024 18:02:58.500,-0.05,
11-02-1997 06:13:13.296,31797248,30-07-2024 18:02:58.500,-0.05,
11-02-1997 06:13:13.296,31797248,30-07-2024 18:02:58.500,-0.06,
11-02-1997 06:13:13.296,31797248,30-07-2024 18:02:58.500,-0.05,
11-02-1997 06:13:13.296,31797248,30-07-2024 18:02:58.500,-0.05,
11-02-1997 06:13:13.296,31797248,30-07-2024 18:02:58.500,-0.04,
11-02-1997 06:13:13.296,31797248,30-07-2024 18:02:58.500,-0.04,
11-02-1997 06:13:13.296,31797248,30-07-2024 18:02:58.500,-0.03,
11-02-1997 06:13:13.296,31797248,30-07-2024 18:02:58.500,-0.02,
11-02-1997 06:13:13.552,31799296,30-07-2024 18:02:59.525,-0.01,
11-02-1997 06:13:13.552,31799296,30-07-2024 18:02:59.525,-0.01,
11-02-1997 06:13:13.552,31799296,30-07-2024 18:02:59.525,0,
11-02-1997 06:13:13.552,31799296,30-07-2024 18:02:59.525,0.01,
11-02-1997 06:13:13.552,31799296,30-07-2024 18:02:59.525,0.02,
11-02-1997 06:13:13.552,31799296,30-07-2024 18:02:59.525,0.03,
11-02-1997 06:13:13.552,31799296,30-07-2024 18:02:59.525,0.03,
11-02-1997 06:13:13.552,31799296,30-07-2024 18:02:59.525,0.03,
11-02-1997 06:13:13.552,31799296,30-07-2024 18:02:59.525,0.03,
11-02-1997 06:13:13.552,31799296,30-07-2024 18:02:59.525,0.04,
11-02-1997 06:13:13.552,31799296,30-07-2024 18:02:59.525,0.04,
11-02-1997 06:13:13.552,31799296,30-07-2024 18:02:59.525,0.04,
11-02-1997 06:13:13.552,31799296,30-07-2024 18:02:59.525,0.05,
11-02-1997 06:13:13.552,31799296,30-07-2024 18:02:59.525,0.05,
11-02-1997 06:13:13.552,31799296,30-07-2024 18:02:59.525,0.05,
11-02-1997 06:13:13.552,31799296,30-07-2024 18:02:59.525,0.05,
11-02-1997 06:13:13.552,31799296,30-07-2024 18:02:59.525,0.05,
11-02-1997 06:13:13.552,31799296,30-07-2024 18:02:59.525,0.05,
11-02-1997 06:13:13.552,31799296,30-07-2024 18:02:59.525,0.05,
11-02-1997 06:13:13.552,31799296,30-07-2024 18:02:59.525,0.04,
11-02-1997 06:13:13.552,31799296,30-07-2024 18:02:59.525,0.04,
11-02-1997 06:13:13.552,31799296,30-07-2024 18:02:59.525,0.03,
11-02-1997 06:13:13.552,31799296,30-07-2024 18:02:59.525,0.03,
11-02-1997 06:13:13.552,31799296,30-07-2024 18:02:59.525,0.02,
11-02-1997 06:13:13.552,31799296,30-07-2024 18:02:59.525,0.02,
11-02-1997 06:13:13.552,31799296,30-07-2024 18:02:59.525,0,
11-02-1997 06:13:13.552,31799296,30-07-2024 18:02:59.525,0,
11-02-1997 06:13:13.552,31799296,30-07-2024 18:02:59.525,-0.01,
11-02-1997 06:13:13.552,31799296,30-07-2024 18:02:59.525,-0,
11-02-1997 06:13:13.552,31799296,30-07-2024 18:02:59.525,-0.02,
11-02-1997 06:13:13.552,31799296,30-07-2024 18:02:59.525,-0.02,
11-02-1997 06:13:13.552,31799296,30-07-2024 18:02:59.525,-0.03,
11-02-1997 06:13:13.552,31799296,30-07-2024 18:02:59.525,-0.04,
11-02-1997 06:13:13.552,31799296,30-07-2024 18:02:59.525,-0.04,
11-02-1997 06:13:13.552,31799296,30-07-2024 18:02:59.525,-0.04,
11-02-1997 06:13:13.552,31799296,30-07-2024 18:02:59.525,-0.05,
11-02-1997 06:13:13.552,31799296,30-07-2024 18:02:59.525,-0.05,
11-02-1997 06:13:13.552,31799296,30-07-2024 18:02:59.525,-0.04,
11-02-1997 06:13:13.552,31799296,30-07-2024 18:02:59.525,-0.04,
11-02-1997 06:13:13.552,31799296,30-07-2024 18:02:59.525,-0.04,
11-02-1997 06:13:13.552,31799296,30-07-2024 18:02:59.525,-0.04,
11-02-1997 06:13:13.552,31799296,30-07-2024 18:02:59.525,-0.05,
11-02-1997 06:13:13.552,31799296,30-07-2024 18:02:59.525,-0.05,
11-02-1997 06:13:13.552,31799296,30-07-2024 18:02:59.525,-0.05,
11-02-1997 06:13:13.552,31799296,30-07-2024 18:02:59.525,-0.05,
11-02-1997 06:13:13.552,31799296,30-07-2024 18:02:59.525,-0.05,
11-02-1997 06:13:13.552,31799296,30-07-2024 18:02:59.525,-0.05,
11-02-1997 06:13:13.552,31799296,30-07-2024 18:02:59.525,-0.06,
11-02-1997 06:13:13.552,31799296,30-07-2024 18:02:59.525,-0.05,
11-02-1997 06:13:13.552,31799296,30-07-2024 18:02:59.525,-0.05,
11-02-1997 06:13:13.552,31799296,30-07-2024 18:02:59.525,-0.05,
11-02-1997 06:13:13.552,31799296,30-07-2024 18:02:59.525,-0.05,
11-02-1997 06:13:13.552,31799296,30-07-2024 18:02:59.525,-0.04,
11-02-1997 06:13:13.552,31799296,30-07-2024 18:02:59.525,-0.04,
11-02-1997 06:13:13.552,31799296,30-07-2024 18:02:59.525,-0.04,
11-02-1997 06:13:13.552,31799296,30-07-2024 18:02:59.525,-0.05,
11-02-1997 06:13:13.552,31799296,30-07-2024 18:02:59.525,-0.05,
11-02-1997 06:13:13.552,31799296,30-07-2024 18:02:59.525,-0.05,
11-02-1997 06:13:13.552,31799296,30-07-2024 18:02:59.525,-0.04,
11-02-1997 06:13:13.552,31799296,30-07-2024 18:02:59.525,-0.04,
11-02-1997 06:13:13.552,31799296,30-07-2024 18:02:59.525,-0.04,
11-02-1997 06:13:13.552,31799296,30-07-2024 18:02:59.525,-0.04,
11-02-1997 06:13:13.552,31799296,30-07-2024 18:02:59.525,-0.04,
11-02-1997 06:13:13.552,31799296,30-07-2024 18:02:59.525,-0.04,
11-02-1997 06:13:13.552,31799296,30-07-2024 18:02:59.525,-0.04,
11-02-1997 06:13:13.552,31799296,30-07-2024 18:02:59.525,-0.04,
11-02-1997 06:13:13.552,31799296,30-07-2024 18:02:59.525,-0.03,
11-02-1997 06:13:13.552,31799296,30-07-2024 18:02:59.525,-0.03,
11-02-1997 06:13:13.552,31799296,30-07-2024 18:02:59.525,-0.03,
11-02-1997 06:13:13.552,31799296,30-07-2024 18:02:59.525,-0.03,
11-02-1997 06:13:13.552,31799296,30-07-2024 18:02:59.525,-0.03,
11-02-1997 06:13:13.552,31799296,30-07-2024 18:02:59.525,-0.03,
11-02-1997 06:13:13.552,31799296,30-07-2024 18:02:59.525,-0.03,
11-02-1997 06:13:13.552,31799296,30-07-2024 18:02:59.525,-0.04,
11-02-1997 06:13:13.552,31799296,30-07-2024 18:02:59.525,-0.05,
11-02-1997 06:13:13.552,31799296,30-07-2024 18:02:59.525,-0.08,
11-02-1997 06:13:13.552,31799296,30-07-2024 18:02:59.525,-0.11,
11-02-1997 06:13:13.552,31799296,30-07-2024 18:02:59.525,-0.13,
11-02-1997 06:13:13.552,31799296,30-07-2024 18:02:59.525,-0.15,
11-02-1997 06:13:13.552,31799296,30-07-2024 18:02:59.525,-0.16,
11-02-1997 06:13:13.552,31799296,30-07-2024 18:02:59.525,-0.16,
11-02-1997 06:13:13.552,31799296,30-07-2024 18:02:59.525,-0.12,
11-02-1997 06:13:13.552,31799296,30-07-2024 18:02:59.525,-0.08,
11-02-1997 06:13:13.552,31799296,30-07-2024 18:02:59.525,-0.01,
11-02-1997 06:13:13.552,31799296,30-07-2024 18:02:59.525,0.06,
11-02-1997 06:13:13.552,31799296,30-07-2024 18:02:59.525,0.13,
11-02-1997 06:13:13.552,31799296,30-07-2024 18:02:59.525,0.21,
11-02-1997 06:13:13.552,31799296,30-07-2024 18:02:59.525,0.31,
11-02-1997 06:13:13.552,31799296,30-07-2024 18:02:59.525,0.4,
11-02-1997 06:13:13.552,31799296,30-07-2024 18:02:59.525,0.49,
11-02-1997 06:13:13.552,31799296,30-07-2024 18:02:59.525,0.55,
11-02-1997 06:13:13.552,31799296,30-07-2024 18:02:59.525,0.61,
11-02-1997 06:13:13.552,31799296,30-07-2024 18:02:59.525,0.63,
11-02-1997 06:13:13.552,31799296,30-07-2024 18:02:59.525,0.61,
11-02-1997 06:13:13.552,31799296,30-07-2024 18:02:59.525,0.59,
11-02-1997 06:13:13.552,31799296,30-07-2024 18:02:59.525,0.52,
11-02-1997 06:13:13.552,31799296,30-07-2024 18:02:59.525,0.45,
11-02-1997 06:13:13.552,31799296,30-07-2024 18:02:59.525,0.37,
11-02-1997 06:13:13.552,31799296,30-07-2024 18:02:59.525,0.28,
11-02-1997 06:13:13.552,31799296,30-07-2024 18:02:59.525,0.19,
11-02-1997 06:13:13.552,31799296,30-07-2024 18:02:59.525,0.12,
11-02-1997 06:13:13.552,31799296,30-07-2024 18:02:59.525,0.05,
11-02-1997 06:13:13.552,31799296,30-07-2024 18:02:59.525,-0.01,
11-02-1997 06:13:13.552,31799296,30-07-2024 18:02:59.525,-0.05,
11-02-1997 06:13:13.552,31799296,30-07-2024 18:02:59.525,-0.09,
11-02-1997 06:13:13.552,31799296,30-07-2024 18:02:59.525,-0.12,
11-02-1997 06:13:13.552,31799296,30-07-2024 18:02:59.525,-0.13,
11-02-1997 06:13:13.552,31799296,30-07-2024 18:02:59.525,-0.13,
11-02-1997 06:13:13.552,31799296,30-07-2024 18:02:59.525,-0.13,
11-02-1997 06:13:13.552,31799296,30-07-2024 18:02:59.525,-0.12,
11-02-1997 06:13:13.552,31799296,30-07-2024 18:02:59.525,-0.11,
11-02-1997 06:13:13.552,31799296,30-07-2024 18:02:59.525,-0.09,
11-02-1997 06:13:13.552,31799296,30-07-2024 18:02:59.525,-0.07,
11-02-1997 06:13:13.552,31799296,30-07-2024 18:02:59.525,-0.07,
11-02-1997 06:13:13.552,31799296,30-07-2024 18:02:59.525,-0.07,
11-02-1997 06:13:13.552,31799296,30-07-2024 18:02:59.525,-0.07,
11-02-1997 06:13:13.552,31799296,30-07-2024 18:02:59.525,-0.07,
11-02-1997 06:13:13.552,31799296,30-07-2024 18:02:59.525,-0.07,
11-02-1997 06:13:13.552,31799296,30-07-2024 18:02:59.525,-0.06,
11-02-1997 06:13:13.552,31799296,30-07-2024 18:02:59.525,-0.06,
11-02-1997 06:13:13.552,31799296,30-07-2024 18:02:59.525,-0.06,
11-02-1997 06:13:13.552,31799296,30-07-2024 18:02:59.525,-0.06,
11-02-1997 06:13:13.552,31799296,30-07-2024 18:02:59.525,-0.06,
11-02-1997 06:13:13.552,31799296,30-07-2024 18:02:59.525,-0.06,
11-02-1997 06:13:13.552,31799296,30-07-2024 18:02:59.525,-0.06,
11-02-1997 06:13:13.552,31799296,30-07-2024 18:02:59.525,-0.06,
11-02-1997 06:13:13.552,31799296,30-07-2024 18:02:59.525,-0.06,
11-02-1997 06:13:13.552,31799296,30-07-2024 18:02:59.525,-0.06,
11-02-1997 06:13:13.808,31801344,30-07-2024 18:02:59.529,-0.05,
11-02-1997 06:13:13.808,31801344,30-07-2024 18:02:59.529,-0.06,
11-02-1997 06:13:13.808,31801344,30-07-2024 18:02:59.529,-0.05,
11-02-1997 06:13:13.808,31801344,30-07-2024 18:02:59.529,-0.05,
11-02-1997 06:13:13.808,31801344,30-07-2024 18:02:59.529,-0.05,
11-02-1997 06:13:13.808,31801344,30-07-2024 18:02:59.529,-0.05,
11-02-1997 06:13:13.808,31801344,30-07-2024 18:02:59.529,-0.06,
11-02-1997 06:13:13.808,31801344,30-07-2024 18:02:59.529,-0.06,
11-02-1997 06:13:13.808,31801344,30-07-2024 18:02:59.529,-0.06,
11-02-1997 06:13:13.808,31801344,30-07-2024 18:02:59.529,-0.06,
11-02-1997 06:13:13.808,31801344,30-07-2024 18:02:59.529,-0.06,
11-02-1997 06:13:13.808,31801344,30-07-2024 18:02:59.529,-0.05,
11-02-1997 06:13:13.808,31801344,30-07-2024 18:02:59.529,-0.05,
11-02-1997 06:13:13.808,31801344,30-07-2024 18:02:59.529,-0.05,
11-02-1997 06:13:13.808,31801344,30-07-2024 18:02:59.529,-0.05,
11-02-1997 06:13:13.808,31801344,30-07-2024 18:02:59.529,-0.05,
11-02-1997 06:13:13.808,31801344,30-07-2024 18:02:59.529,-0.06,
11-02-1997 06:13:13.808,31801344,30-07-2024 18:02:59.529,-0.06,
11-02-1997 06:13:13.808,31801344,30-07-2024 18:02:59.529,-0.06,
11-02-1997 06:13:13.808,31801344,30-07-2024 18:02:59.529,-0.06,
11-02-1997 06:13:13.808,31801344,30-07-2024 18:02:59.529,-0.05,
11-02-1997 06:13:13.808,31801344,30-07-2024 18:02:59.529,-0.05,
11-02-1997 06:13:13.808,31801344,30-07-2024 18:02:59.529,-0.06,
11-02-1997 06:13:13.808,31801344,30-07-2024 18:02:59.529,-0.06,
11-02-1997 06:13:13.808,31801344,30-07-2024 18:02:59.529,-0.06,
11-02-1997 06:13:13.808,31801344,30-07-2024 18:02:59.529,-0.06,
11-02-1997 06:13:13.808,31801344,30-07-2024 18:02:59.529,-0.06,
11-02-1997 06:13:13.808,31801344,30-07-2024 18:02:59.529,-0.05,
11-02-1997 06:13:13.808,31801344,30-07-2024 18:02:59.529,-0.05,
11-02-1997 06:13:13.808,31801344,30-07-2024 18:02:59.529,-0.05,
11-02-1997 06:13:13.808,31801344,30-07-2024 18:02:59.529,-0.05,
11-02-1997 06:13:13.808,31801344,30-07-2024 18:02:59.529,-0.05,
11-02-1997 06:13:13.808,31801344,30-07-2024 18:02:59.529,-0.05,
11-02-1997 06:13:13.808,31801344,30-07-2024 18:02:59.529,-0.05,
11-02-1997 06:13:13.808,31801344,30-07-2024 18:02:59.529,-0.06,
11-02-1997 06:13:13.808,31801344,30-07-2024 18:02:59.529,-0.06,
11-02-1997 06:13:13.808,31801344,30-07-2024 18:02:59.529,-0.05,
11-02-1997 06:13:13.808,31801344,30-07-2024 18:02:59.529,-0.05,
11-02-1997 06:13:13.808,31801344,30-07-2024 18:02:59.529,-0.05,
11-02-1997 06:13:13.808,31801344,30-07-2024 18:02:59.529,-0.05,
11-02-1997 06:13:13.808,31801344,30-07-2024 18:02:59.529,-0.05,
11-02-1997 06:13:13.808,31801344,30-07-2024 18:02:59.529,-0.05,
11-02-1997 06:13:13.808,31801344,30-07-2024 18:02:59.529,-0.05,
11-02-1997 06:13:13.808,31801344,30-07-2024 18:02:59.529,-0.05,
11-02-1997 06:13:13.808,31801344,30-07-2024 18:02:59.529,-0.05,
11-02-1997 06:13:13.808,31801344,30-07-2024 18:02:59.529,-0.04,
11-02-1997 06:13:13.808,31801344,30-07-2024 18:02:59.529,-0.04,
11-02-1997 06:13:13.808,31801344,30-07-2024 18:02:59.529,-0.03,
11-02-1997 06:13:13.808,31801344,30-07-2024 18:02:59.529,-0.02,
11-02-1997 06:13:13.808,31801344,30-07-2024 18:02:59.529,-0.02,
11-02-1997 06:13:13.808,31801344,30-07-2024 18:02:59.529,-0.01,
11-02-1997 06:13:13.808,31801344,30-07-2024 18:02:59.529,0,
11-02-1997 06:13:13.808,31801344,30-07-2024 18:02:59.529,0.01,
11-02-1997 06:13:13.808,31801344,30-07-2024 18:02:59.529,0.01,
11-02-1997 06:13:13.808,31801344,30-07-2024 18:02:59.529,0.02,
11-02-1997 06:13:13.808,31801344,30-07-2024 18:02:59.529,0.03,
11-02-1997 06:13:13.808,31801344,30-07-2024 18:02:59.529,0.04,
11-02-1997 06:13:13.808,31801344,30-07-2024 18:02:59.529,0.04,
11-02-1997 06:13:13.808,31801344,30-07-2024 18:02:59.529,0.04,
11-02-1997 06:13:13.808,31801344,30-07-2024 18:02:59.529,0.05,
11-02-1997 06:13:13.808,31801344,30-07-2024 18:02:59.529,0.06,
11-02-1997 06:13:13.808,31801344,30-07-2024 18:02:59.529,0.06,
11-02-1997 06:13:13.808,31801344,30-07-2024 18:02:59.529,0.07,
11-02-1997 06:13:13.808,31801344,30-07-2024 18:02:59.529,0.07,
11-02-1997 06:13:13.808,31801344,30-07-2024 18:02:59.529,0.09,
11-02-1997 06:13:13.808,31801344,30-07-2024 18:02:59.529,0.09,
11-02-1997 06:13:13.808,31801344,30-07-2024 18:02:59.529,0.09,
11-02-1997 06:13:13.808,31801344,30-07-2024 18:02:59.529,0.11,
11-02-1997 06:13:13.808,31801344,30-07-2024 18:02:59.529,0.11,
11-02-1997 06:13:13.808,31801344,30-07-2024 18:02:59.529,0.11,
11-02-1997 06:13:13.808,31801344,30-07-2024 18:02:59.529,0.12,
11-02-1997 06:13:13.808,31801344,30-07-2024 18:02:59.529,0.12,
11-02-1997 06:13:13.808,31801344,30-07-2024 18:02:59.529,0.13,
11-02-1997 06:13:13.808,31801344,30-07-2024 18:02:59.529,0.13,
11-02-1997 06:13:13.808,31801344,30-07-2024 18:02:59.529,0.14,
11-02-1997 06:13:13.808,31801344,30-07-2024 18:02:59.529,0.14,
11-02-1997 06:13:13.808,31801344,30-07-2024 18:02:59.529,0.13,
11-02-1997 06:13:13.808,31801344,30-07-2024 18:02:59.529,0.14,
11-02-1997 06:13:13.808,31801344,30-07-2024 18:02:59.529,0.14,
11-02-1997 06:13:13.808,31801344,30-07-2024 18:02:59.529,0.15,
11-02-1997 06:13:13.808,31801344,30-07-2024 18:02:59.529,0.14,
11-02-1997 06:13:13.808,31801344,30-07-2024 18:02:59.529,0.14,
11-02-1997 06:13:13.808,31801344,30-07-2024 18:02:59.529,0.14,
11-02-1997 06:13:13.808,31801344,30-07-2024 18:02:59.529,0.14,
11-02-1997 06:13:13.808,31801344,30-07-2024 18:02:59.529,0.14,
11-02-1997 06:13:13.808,31801344,30-07-2024 18:02:59.529,0.14,
11-02-1997 06:13:13.808,31801344,30-07-2024 18:02:59.529,0.14,
11-02-1997 06:13:13.808,31801344,30-07-2024 18:02:59.529,0.13,
11-02-1997 06:13:13.808,31801344,30-07-2024 18:02:59.529,0.14,
11-02-1997 06:13:13.808,31801344,30-07-2024 18:02:59.529,0.14,
11-02-1997 06:13:13.808,31801344,30-07-2024 18:02:59.529,0.13,
11-02-1997 06:13:13.808,31801344,30-07-2024 18:02:59.529,0.13,
11-02-1997 06:13:13.808,31801344,30-07-2024 18:02:59.529,0.13,
11-02-1997 06:13:13.808,31801344,30-07-2024 18:02:59.529,0.12,
11-02-1997 06:13:13.808,31801344,30-07-2024 18:02:59.529,0.11,
11-02-1997 06:13:13.808,31801344,30-07-2024 18:02:59.529,0.12,
11-02-1997 06:13:13.808,31801344,30-07-2024 18:02:59.529,0.11,
11-02-1997 06:13:13.808,31801344,30-07-2024 18:02:59.529,0.1,
11-02-1997 06:13:13.808,31801344,30-07-2024 18:02:59.529,0.09,
11-02-1997 06:13:13.808,31801344,30-07-2024 18:02:59.529,0.08,
11-02-1997 06:13:13.808,31801344,30-07-2024 18:02:59.529,0.07,
11-02-1997 06:13:13.808,31801344,30-07-2024 18:02:59.529,0.07,
11-02-1997 06:13:13.808,31801344,30-07-2024 18:02:59.529,0.06,
11-02-1997 06:13:13.808,31801344,30-07-2024 18:02:59.529,0.06,
11-02-1997 06:13:13.808,31801344,30-07-2024 18:02:59.529,0.05,
11-02-1997 06:13:13.808,31801344,30-07-2024 18:02:59.529,0.05,
11-02-1997 06:13:13.808,31801344,30-07-2024 18:02:59.529,0.04,
11-02-1997 06:13:13.808,31801344,30-07-2024 18:02:59.529,0.03,
11-02-1997 06:13:13.808,31801344,30-07-2024 18:02:59.529,0.02,
11-02-1997 06:13:13.808,31801344,30-07-2024 18:02:59.529,0.01,
11-02-1997 06:13:13.808,31801344,30-07-2024 18:02:59.529,0,
11-02-1997 06:13:13.808,31801344,30-07-2024 18:02:59.529,-0,
11-02-1997 06:13:13.808,31801344,30-07-2024 18:02:59.529,-0.01,
11-02-1997 06:13:13.808,31801344,30-07-2024 18:02:59.529,-0.02,
11-02-1997 06:13:13.808,31801344,30-07-2024 18:02:59.529,-0.03,
11-02-1997 06:13:13.808,31801344,30-07-2024 18:02:59.529,-0.04,
11-02-1997 06:13:13.808,31801344,30-07-2024 18:02:59.529,-0.04,
11-02-1997 06:13:13.808,31801344,30-07-2024 18:02:59.529,-0.04,
11-02-1997 06:13:13.808,31801344,30-07-2024 18:02:59.529,-0.05,
11-02-1997 06:13:13.808,31801344,30-07-2024 18:02:59.529,-0.06,
11-02-1997 06:13:13.808,31801344,30-07-2024 18:02:59.529,-0.06,
11-02-1997 06:13:13.808,31801344,30-07-2024 18:02:59.529,-0.08,
11-02-1997 06:13:13.808,31801344,30-07-2024 18:02:59.529,-0.08,
11-02-1997 06:13:13.808,31801344,30-07-2024 18:02:59.529,-0.09,
11-02-1997 06:13:13.808,31801344,30-07-2024 18:02:59.529,-0.09,
11-02-1997 06:13:13.808,31801344,30-07-2024 18:02:59.529,-0.09,
11-02-1997 06:13:13.808,31801344,30-07-2024 18:02:59.529,-0.08,
11-02-1997 06:13:13.808,31801344,30-07-2024 18:02:59.529,-0.08,
11-02-1997 06:13:14.064,31803392,30-07-2024 18:02:59.531,-0.09,
11-02-1997 06:13:14.064,31803392,30-07-2024 18:02:59.531,-0.09,
11-02-1997 06:13:14.064,31803392,30-07-2024 18:02:59.531,-0.09,
11-02-1997 06:13:14.064,31803392,30-07-2024 18:02:59.531,-0.09,
11-02-1997 06:13:14.064,31803392,30-07-2024 18:02:59.531,-0.09,
11-02-1997 06:13:14.064,31803392,30-07-2024 18:02:59.531,-0.08,
11-02-1997 06:13:14.064,31803392,30-07-2024 18:02:59.531,-0.08,
11-02-1997 06:13:14.064,31803392,30-07-2024 18:02:59.531,-0.08,
11-02-1997 06:13:14.064,31803392,30-07-2024 18:02:59.531,-0.08,
11-02-1997 06:13:14.064,31803392,30-07-2024 18:02:59.531,-0.08,
11-02-1997 06:13:14.064,31803392,30-07-2024 18:02:59.531,-0.08,
11-02-1997 06:13:14.064,31803392,30-07-2024 18:02:59.531,-0.08,
11-02-1997 06:13:14.064,31803392,30-07-2024 18:02:59.531,-0.07,
11-02-1997 06:13:14.064,31803392,30-07-2024 18:02:59.531,-0.07,
11-02-1997 06:13:14.064,31803392,30-07-2024 18:02:59.531,-0.07,
11-02-1997 06:13:14.064,31803392,30-07-2024 18:02:59.531,-0.07,
11-02-1997 06:13:14.064,31803392,30-07-2024 18:02:59.531,-0.06,
11-02-1997 06:13:14.064,31803392,30-07-2024 18:02:59.531,-0.06,
11-02-1997 06:13:14.064,31803392,30-07-2024 18:02:59.531,-0.07,
11-02-1997 06:13:14.064,31803392,30-07-2024 18:02:59.531,-0.07,
11-02-1997 06:13:14.064,31803392,30-07-2024 18:02:59.531,-0.07,
11-02-1997 06:13:14.064,31803392,30-07-2024 18:02:59.531,-0.07,
11-02-1997 06:13:14.064,31803392,30-07-2024 18:02:59.531,-0.07,
11-02-1997 06:13:14.064,31803392,30-07-2024 18:02:59.531,-0.06,
11-02-1997 06:13:14.064,31803392,30-07-2024 18:02:59.531,-0.07,
11-02-1997 06:13:14.064,31803392,30-07-2024 18:02:59.531,-0.07,
11-02-1997 06:13:14.064,31803392,30-07-2024 18:02:59.531,-0.07,
11-02-1997 06:13:14.064,31803392,30-07-2024 18:02:59.531,-0.07,
11-02-1997 06:13:14.064,31803392,30-07-2024 18:02:59.531,-0.07,
11-02-1997 06:13:14.064,31803392,30-07-2024 18:02:59.531,-0.07,
11-02-1997 06:13:14.064,31803392,30-07-2024 18:02:59.531,-0.06,
11-02-1997 06:13:14.064,31803392,30-07-2024 18:02:59.531,-0.07,
11-02-1997 06:13:14.064,31803392,30-07-2024 18:02:59.531,-0.06,
11-02-1997 06:13:14.064,31803392,30-07-2024 18:02:59.531,-0.06,
11-02-1997 06:13:14.064,31803392,30-07-2024 18:02:59.531,-0.06,
11-02-1997 06:13:14.064,31803392,30-07-2024 18:02:59.531,-0.06,
11-02-1997 06:13:14.064,31803392,30-07-2024 18:02:59.531,-0.06,
11-02-1997 06:13:14.064,31803392,30-07-2024 18:02:59.531,-0.06,
11-02-1997 06:13:14.064,31803392,30-07-2024 18:02:59.531,-0.06,
11-02-1997 06:13:14.064,31803392,30-07-2024 18:02:59.531,-0.06,
11-02-1997 06:13:14.064,31803392,30-07-2024 18:02:59.531,-0.06,
11-02-1997 06:13:14.064,31803392,30-07-2024 18:02:59.531,-0.06,
11-02-1997 06:13:14.064,31803392,30-07-2024 18:02:59.531,-0.06,
11-02-1997 06:13:14.064,31803392,30-07-2024 18:02:59.531,-0.06,
11-02-1997 06:13:14.064,31803392,30-07-2024 18:02:59.531,-0.06,
11-02-1997 06:13:14.064,31803392,30-07-2024 18:02:59.531,-0.07,
11-02-1997 06:13:14.064,31803392,30-07-2024 18:02:59.531,-0.07,
11-02-1997 06:13:14.064,31803392,30-07-2024 18:02:59.531,-0.07,
11-02-1997 06:13:14.064,31803392,30-07-2024 18:02:59.531,-0.06,
11-02-1997 06:13:14.064,31803392,30-07-2024 18:02:59.531,-0.06,
11-02-1997 06:13:14.064,31803392,30-07-2024 18:02:59.531,-0.07,
11-02-1997 06:13:14.064,31803392,30-07-2024 18:02:59.531,-0.07,
11-02-1997 06:13:14.064,31803392,30-07-2024 18:02:59.531,-0.07,
11-02-1997 06:13:14.064,31803392,30-07-2024 18:02:59.531,-0.07,
11-02-1997 06:13:14.064,31803392,30-07-2024 18:02:59.531,-0.07,
11-02-1997 06:13:14.064,31803392,30-07-2024 18:02:59.531,-0.07,
11-02-1997 06:13:14.064,31803392,30-07-2024 18:02:59.531,-0.07,
11-02-1997 06:13:14.064,31803392,30-07-2024 18:02:59.531,-0.06,
11-02-1997 06:13:14.064,31803392,30-07-2024 18:02:59.531,-0.06,
11-02-1997 06:13:14.064,31803392,30-07-2024 18:02:59.531,-0.07,
11-02-1997 06:13:14.064,31803392,30-07-2024 18:02:59.531,-0.07,
11-02-1997 06:13:14.064,31803392,30-07-2024 18:02:59.531,-0.07,
11-02-1997 06:13:14.064,31803392,30-07-2024 18:02:59.531,-0.07,
11-02-1997 06:13:14.064,31803392,30-07-2024 18:02:59.531,-0.07,
11-02-1997 06:13:14.064,31803392,30-07-2024 18:02:59.531,-0.07,
11-02-1997 06:13:14.064,31803392,30-07-2024 18:02:59.531,-0.07,
11-02-1997 06:13:14.064,31803392,30-07-2024 18:02:59.531,-0.07,
11-02-1997 06:13:14.064,31803392,30-07-2024 18:02:59.531,-0.07,
11-02-1997 06:13:14.064,31803392,30-07-2024 18:02:59.531,-0.07,
11-02-1997 06:13:14.064,31803392,30-07-2024 18:02:59.531,-0.07,
11-02-1997 06:13:14.064,31803392,30-07-2024 18:02:59.531,-0.07,
11-02-1997 06:13:14.064,31803392,30-07-2024 18:02:59.531,-0.07,
11-02-1997 06:13:14.064,31803392,30-07-2024 18:02:59.531,-0.07,
11-02-1997 06:13:14.064,31803392,30-07-2024 18:02:59.531,-0.07,
11-02-1997 06:13:14.064,31803392,30-07-2024 18:02:59.531,-0.07,
11-02-1997 06:13:14.064,31803392,30-07-2024 18:02:59.531,-0.06,
11-02-1997 06:13:14.064,31803392,30-07-2024 18:02:59.531,-0.06,
11-02-1997 06:13:14.064,31803392,30-07-2024 18:02:59.531,-0.05,
11-02-1997 06:13:14.064,31803392,30-07-2024 18:02:59.531,-0.05,
11-02-1997 06:13:14.064,31803392,30-07-2024 18:02:59.531,-0.05,
11-02-1997 06:13:14.064,31803392,30-07-2024 18:02:59.531,-0.06,
11-02-1997 06:13:14.064,31803392,30-07-2024 18:02:59.531,-0.06,
11-02-1997 06:13:14.064,31803392,30-07-2024 18:02:59.531,-0.06,
11-02-1997 06:13:14.064,31803392,30-07-2024 18:02:59.531,-0.06,
11-02-1997 06:13:14.064,31803392,30-07-2024 18:02:59.531,-0.06,
11-02-1997 06:13:14.064,31803392,30-07-2024 18:02:59.531,-0.05,
11-02-1997 06:13:14.064,31803392,30-07-2024 18:02:59.531,-0.05,
11-02-1997 06:13:14.064,31803392,30-07-2024 18:02:59.531,-0.04,
11-02-1997 06:13:14.064,31803392,30-07-2024 18:02:59.531,-0.05,
11-02-1997 06:13:14.064,31803392,30-07-2024 18:02:59.531,-0.05,
11-02-1997 06:13:14.064,31803392,30-07-2024 18:02:59.531,-0.06,
11-02-1997 06:13:14.064,31803392,30-07-2024 18:02:59.531,-0.06,
11-02-1997 06:13:14.064,31803392,30-07-2024 18:02:59.531,-0.05,
11-02-1997 06:13:14.064,31803392,30-07-2024 18:02:59.531,-0.06,
11-02-1997 06:13:14.064,31803392,30-07-2024 18:02:59.531,-0.05,
11-02-1997 06:13:14.064,31803392,30-07-2024 18:02:59.531,-0.05,
11-02-1997 06:13:14.064,31803392,30-07-2024 18:02:59.531,-0.06,
11-02-1997 06:13:14.064,31803392,30-07-2024 18:02:59.531,-0.06,
11-02-1997 06:13:14.064,31803392,30-07-2024 18:02:59.531,-0.07,
11-02-1997 06:13:14.064,31803392,30-07-2024 18:02:59.531,-0.06,
11-02-1997 06:13:14.064,31803392,30-07-2024 18:02:59.531,-0.06,
11-02-1997 06:13:14.064,31803392,30-07-2024 18:02:59.531,-0.06,
11-02-1997 06:13:14.064,31803392,30-07-2024 18:02:59.531,-0.05,
11-02-1997 06:13:14.064,31803392,30-07-2024 18:02:59.531,-0.05,
11-02-1997 06:13:14.064,31803392,30-07-2024 18:02:59.531,-0.05,
11-02-1997 06:13:14.064,31803392,30-07-2024 18:02:59.531,-0.06,
11-02-1997 06:13:14.064,31803392,30-07-2024 18:02:59.531,-0.06,
11-02-1997 06:13:14.064,31803392,30-07-2024 18:02:59.531,-0.06,
11-02-1997 06:13:14.064,31803392,30-07-2024 18:02:59.531,-0.06,
11-02-1997 06:13:14.064,31803392,30-07-2024 18:02:59.531,-0.06,
11-02-1997 06:13:14.064,31803392,30-07-2024 18:02:59.531,-0.06,
11-02-1997 06:13:14.064,31803392,30-07-2024 18:02:59.531,-0.06,
11-02-1997 06:13:14.064,31803392,30-07-2024 18:02:59.531,-0.05,
11-02-1997 06:13:14.064,31803392,30-07-2024 18:02:59.531,-0.05,
11-02-1997 06:13:14.064,31803392,30-07-2024 18:02:59.531,-0.05,
11-02-1997 06:13:14.064,31803392,30-07-2024 18:02:59.531,-0.05,
11-02-1997 06:13:14.064,31803392,30-07-2024 18:02:59.531,-0.06,
11-02-1997 06:13:14.064,31803392,30-07-2024 18:02:59.531,-0.05,
11-02-1997 06:13:14.064,31803392,30-07-2024 18:02:59.531,-0.04,
11-02-1997 06:13:14.064,31803392,30-07-2024 18:02:59.531,-0.03,
11-02-1997 06:13:14.064,31803392,30-07-2024 18:02:59.531,-0.02,
11-02-1997 06:13:14.064,31803392,30-07-2024 18:02:59.531,-0.02,
11-02-1997 06:13:14.064,31803392,30-07-2024 18:02:59.531,-0.01,
11-02-1997 06:13:14.064,31803392,30-07-2024 18:02:59.531,-0,
11-02-1997 06:13:14.064,31803392,30-07-2024 18:02:59.531,-0,
11-02-1997 06:13:14.064,31803392,30-07-2024 18:02:59.531,0,
11-02-1997 06:13:14.064,31803392,30-07-2024 18:02:59.531,0.01,
11-02-1997 06:13:14.064,31803392,30-07-2024 18:02:59.531,0.01,
11-02-1997 06:13:14.320,31805440,30-07-2024 18:02:59.534,0.03,
11-02-1997 06:13:14.320,31805440,30-07-2024 18:02:59.534,0.03,
11-02-1997 06:13:14.320,31805440,30-07-2024 18:02:59.534,0.03,
11-02-1997 06:13:14.320,31805440,30-07-2024 18:02:59.534,0.03,
11-02-1997 06:13:14.320,31805440,30-07-2024 18:02:59.534,0.03,
11-02-1997 06:13:14.320,31805440,30-07-2024 18:02:59.534,0.05,
11-02-1997 06:13:14.320,31805440,30-07-2024 18:02:59.534,0.04,
11-02-1997 06:13:14.320,31805440,30-07-2024 18:02:59.534,0.05,
11-02-1997 06:13:14.320,31805440,30-07-2024 18:02:59.534,0.05,
11-02-1997 06:13:14.320,31805440,30-07-2024 18:02:59.534,0.05,
11-02-1997 06:13:14.320,31805440,30-07-2024 18:02:59.534,0.05,
11-02-1997 06:13:14.320,31805440,30-07-2024 18:02:59.534,0.05,
11-02-1997 06:13:14.320,31805440,30-07-2024 18:02:59.534,0.05,
11-02-1997 06:13:14.320,31805440,30-07-2024 18:02:59.534,0.04,
11-02-1997 06:13:14.320,31805440,30-07-2024 18:02:59.534,0.04,
11-02-1997 06:13:14.320,31805440,30-07-2024 18:02:59.534,0.03,
11-02-1997 06:13:14.320,31805440,30-07-2024 18:02:59.534,0.03,
11-02-1997 06:13:14.320,31805440,30-07-2024 18:02:59.534,0.03,
11-02-1997 06:13:14.320,31805440,30-07-2024 18:02:59.534,0.02,
11-02-1997 06:13:14.320,31805440,30-07-2024 18:02:59.534,0.01,
11-02-1997 06:13:14.320,31805440,30-07-2024 18:02:59.534,0.01,
11-02-1997 06:13:14.320,31805440,30-07-2024 18:02:59.534,0,
11-02-1997 06:13:14.320,31805440,30-07-2024 18:02:59.534,-0.01,
11-02-1997 06:13:14.320,31805440,30-07-2024 18:02:59.534,-0.01,
11-02-1997 06:13:14.320,31805440,30-07-2024 18:02:59.534,-0.02,
11-02-1997 06:13:14.320,31805440,30-07-2024 18:02:59.534,-0.02,
11-02-1997 06:13:14.320,31805440,30-07-2024 18:02:59.534,-0.02,
11-02-1997 06:13:14.320,31805440,30-07-2024 18:02:59.534,-0.03,
11-02-1997 06:13:14.320,31805440,30-07-2024 18:02:59.534,-0.04,
11-02-1997 06:13:14.320,31805440,30-07-2024 18:02:59.534,-0.05,
11-02-1997 06:13:14.320,31805440,30-07-2024 18:02:59.534,-0.04,
11-02-1997 06:13:14.320,31805440,30-07-2024 18:02:59.534,-0.05,
11-02-1997 06:13:14.320,31805440,30-07-2024 18:02:59.534,-0.05,
11-02-1997 06:13:14.320,31805440,30-07-2024 18:02:59.534,-0.05,
11-02-1997 06:13:14.320,31805440,30-07-2024 18:02:59.534,-0.05,
11-02-1997 06:13:14.320,31805440,30-07-2024 18:02:59.534,-0.05,
11-02-1997 06:13:14.320,31805440,30-07-2024 18:02:59.534,-0.05,
11-02-1997 06:13:14.320,31805440,30-07-2024 18:02:59.534,-0.05,
11-02-1997 06:13:14.320,31805440,30-07-2024 18:02:59.534,-0.04,
11-02-1997 06:13:14.320,31805440,30-07-2024 18:02:59.534,-0.05,
11-02-1997 06:13:14.320,31805440,30-07-2024 18:02:59.534,-0.05,
11-02-1997 06:13:14.320,31805440,30-07-2024 18:02:59.534,-0.05,
11-02-1997 06:13:14.320,31805440,30-07-2024 18:02:59.534,-0.05,
11-02-1997 06:13:14.320,31805440,30-07-2024 18:02:59.534,-0.05,
11-02-1997 06:13:14.320,31805440,30-07-2024 18:02:59.534,-0.04,
11-02-1997 06:13:14.320,31805440,30-07-2024 18:02:59.534,-0.04,
11-02-1997 06:13:14.320,31805440,30-07-2024 18:02:59.534,-0.03,
11-02-1997 06:13:14.320,31805440,30-07-2024 18:02:59.534,-0.04,
11-02-1997 06:13:14.320,31805440,30-07-2024 18:02:59.534,-0.04,
11-02-1997 06:13:14.320,31805440,30-07-2024 18:02:59.534,-0.04,
11-02-1997 06:13:14.320,31805440,30-07-2024 18:02:59.534,-0.03,
11-02-1997 06:13:14.320,31805440,30-07-2024 18:02:59.534,-0.04,
11-02-1997 06:13:14.320,31805440,30-07-2024 18:02:59.534,-0.04,
11-02-1997 06:13:14.320,31805440,30-07-2024 18:02:59.534,-0.04,
11-02-1997 06:13:14.320,31805440,30-07-2024 18:02:59.534,-0.04,
11-02-1997 06:13:14.320,31805440,30-07-2024 18:02:59.534,-0.03,
11-02-1997 06:13:14.320,31805440,30-07-2024 18:02:59.534,-0.04,
11-02-1997 06:13:14.320,31805440,30-07-2024 18:02:59.534,-0.04,
11-02-1997 06:13:14.320,31805440,30-07-2024 18:02:59.534,-0.04,
11-02-1997 06:13:14.320,31805440,30-07-2024 18:02:59.534,-0.04,
11-02-1997 06:13:14.320,31805440,30-07-2024 18:02:59.534,-0.03,
11-02-1997 06:13:14.320,31805440,30-07-2024 18:02:59.534,-0.02,
11-02-1997 06:13:14.320,31805440,30-07-2024 18:02:59.534,-0.03,
11-02-1997 06:13:14.320,31805440,30-07-2024 18:02:59.534,-0.03,
11-02-1997 06:13:14.320,31805440,30-07-2024 18:02:59.534,-0.03,
11-02-1997 06:13:14.320,31805440,30-07-2024 18:02:59.534,-0.03,
11-02-1997 06:13:14.320,31805440,30-07-2024 18:02:59.534,-0.03,
11-02-1997 06:13:14.320,31805440,30-07-2024 18:02:59.534,-0.04,
11-02-1997 06:13:14.320,31805440,30-07-2024 18:02:59.534,-0.05,
11-02-1997 06:13:14.320,31805440,30-07-2024 18:02:59.534,-0.07,
11-02-1997 06:13:14.320,31805440,30-07-2024 18:02:59.534,-0.1,
11-02-1997 06:13:14.320,31805440,30-07-2024 18:02:59.534,-0.11,
11-02-1997 06:13:14.320,31805440,30-07-2024 18:02:59.534,-0.14,
11-02-1997 06:13:14.320,31805440,30-07-2024 18:02:59.534,-0.15,
11-02-1997 06:13:14.320,31805440,30-07-2024 18:02:59.534,-0.16,
11-02-1997 06:13:14.320,31805440,30-07-2024 18:02:59.534,-0.14,
11-02-1997 06:13:14.320,31805440,30-07-2024 18:02:59.534,-0.12,
11-02-1997 06:13:14.320,31805440,30-07-2024 18:02:59.534,-0.08,
11-02-1997 06:13:14.320,31805440,30-07-2024 18:02:59.534,-0.02,
11-02-1997 06:13:14.320,31805440,30-07-2024 18:02:59.534,0.06,
11-02-1997 06:13:14.320,31805440,30-07-2024 18:02:59.534,0.15,
11-02-1997 06:13:14.320,31805440,30-07-2024 18:02:59.534,0.23,
11-02-1997 06:13:14.320,31805440,30-07-2024 18:02:59.534,0.32,
11-02-1997 06:13:14.320,31805440,30-07-2024 18:02:59.534,0.41,
11-02-1997 06:13:14.320,31805440,30-07-2024 18:02:59.534,0.5,
11-02-1997 06:13:14.320,31805440,30-07-2024 18:02:59.534,0.56,
11-02-1997 06:13:14.320,31805440,30-07-2024 18:02:59.534,0.61,
11-02-1997 06:13:14.320,31805440,30-07-2024 18:02:59.534,0.62,
11-02-1997 06:13:14.320,31805440,30-07-2024 18:02:59.534,0.6,
11-02-1997 06:13:14.320,31805440,30-07-2024 18:02:59.534,0.57,
11-02-1997 06:13:14.320,31805440,30-07-2024 18:02:59.534,0.51,
11-02-1997 06:13:14.320,31805440,30-07-2024 18:02:59.534,0.44,
11-02-1997 06:13:14.320,31805440,30-07-2024 18:02:59.534,0.36,
11-02-1997 06:13:14.320,31805440,30-07-2024 18:02:59.534,0.27,
11-02-1997 06:13:14.320,31805440,30-07-2024 18:02:59.534,0.17,
11-02-1997 06:13:14.320,31805440,30-07-2024 18:02:59.534,0.09,
11-02-1997 06:13:14.320,31805440,30-07-2024 18:02:59.534,0.02,
11-02-1997 06:13:14.320,31805440,30-07-2024 18:02:59.534,-0.03,
11-02-1997 06:13:14.320,31805440,30-07-2024 18:02:59.534,-0.07,
11-02-1997 06:13:14.320,31805440,30-07-2024 18:02:59.534,-0.11,
11-02-1997 06:13:14.320,31805440,30-07-2024 18:02:59.534,-0.12,
11-02-1997 06:13:14.320,31805440,30-07-2024 18:02:59.534,-0.14,
11-02-1997 06:13:14.320,31805440,30-07-2024 18:02:59.534,-0.14,
11-02-1997 06:13:14.320,31805440,30-07-2024 18:02:59.534,-0.13,
11-02-1997 06:13:14.320,31805440,30-07-2024 18:02:59.534,-0.12,
11-02-1997 06:13:14.320,31805440,30-07-2024 18:02:59.534,-0.1,
11-02-1997 06:13:14.320,31805440,30-07-2024 18:02:59.534,-0.08,
11-02-1997 06:13:14.320,31805440,30-07-2024 18:02:59.534,-0.08,
11-02-1997 06:13:14.320,31805440,30-07-2024 18:02:59.534,-0.07,
11-02-1997 06:13:14.320,31805440,30-07-2024 18:02:59.534,-0.07,
11-02-1997 06:13:14.320,31805440,30-07-2024 18:02:59.534,-0.06,
11-02-1997 06:13:14.320,31805440,30-07-2024 18:02:59.534,-0.06,
11-02-1997 06:13:14.320,31805440,30-07-2024 18:02:59.534,-0.07,
11-02-1997 06:13:14.320,31805440,30-07-2024 18:02:59.534,-0.07,
11-02-1997 06:13:14.320,31805440,30-07-2024 18:02:59.534,-0.07,
11-02-1997 06:13:14.320,31805440,30-07-2024 18:02:59.534,-0.06,
11-02-1997 06:13:14.320,31805440,30-07-2024 18:02:59.534,-0.07,
11-02-1997 06:13:14.320,31805440,30-07-2024 18:02:59.534,-0.07,
11-02-1997 06:13:14.320,31805440,30-07-2024 18:02:59.534,-0.07,
11-02-1997 06:13:14.320,31805440,30-07-2024 18:02:59.534,-0.07,
11-02-1997 06:13:14.320,31805440,30-07-2024 18:02:59.534,-0.06,
11-02-1997 06:13:14.320,31805440,30-07-2024 18:02:59.534,-0.06,
11-02-1997 06:13:14.320,31805440,30-07-2024 18:02:59.534,-0.06,
11-02-1997 06:13:14.320,31805440,30-07-2024 18:02:59.534,-0.06,
11-02-1997 06:13:14.320,31805440,30-07-2024 18:02:59.534,-0.06,
11-02-1997 06:13:14.320,31805440,30-07-2024 18:02:59.534,-0.06,
11-02-1997 06:13:14.320,31805440,30-07-2024 18:02:59.534,-0.06,
11-02-1997 06:13:14.320,31805440,30-07-2024 18:02:59.534,-0.06,
11-02-1997 06:13:14.576,31807488,30-07-2024 18:03:00.546,-0.07,
11-02-1997 06:13:14.576,31807488,30-07-2024 18:03:00.546,-0.07,
11-02-1997 06:13:14.576,31807488,30-07-2024 18:03:00.546,-0.07,
11-02-1997 06:13:14.576,31807488,30-07-2024 18:03:00.546,-0.07,
11-02-1997 06:13:14.576,31807488,30-07-2024 18:03:00.546,-0.06,
11-02-1997 06:13:14.576,31807488,30-07-2024 18:03:00.546,-0.07,
11-02-1997 06:13:14.576,31807488,30-07-2024 18:03:00.546,-0.06,
11-02-1997 06:13:14.576,31807488,30-07-2024 18:03:00.546,-0.07,
11-02-1997 06:13:14.576,31807488,30-07-2024 18:03:00.546,-0.06,
11-02-1997 06:13:14.576,31807488,30-07-2024 18:03:00.546,-0.06,
11-02-1997 06:13:14.576,31807488,30-07-2024 18:03:00.546,-0.06,
11-02-1997 06:13:14.576,31807488,30-07-2024 18:03:00.546,-0.06,
11-02-1997 06:13:14.576,31807488,30-07-2024 18:03:00.546,-0.06,
11-02-1997 06:13:14.576,31807488,30-07-2024 18:03:00.546,-0.06,
11-02-1997 06:13:14.576,31807488,30-07-2024 18:03:00.546,-0.07,
11-02-1997 06:13:14.576,31807488,30-07-2024 18:03:00.546,-0.07,
11-02-1997 06:13:14.576,31807488,30-07-2024 18:03:00.546,-0.07,
11-02-1997 06:13:14.576,31807488,30-07-2024 18:03:00.546,-0.07,
11-02-1997 06:13:14.576,31807488,30-07-2024 18:03:00.546,-0.07,
11-02-1997 06:13:14.576,31807488,30-07-2024 18:03:00.546,-0.06,
11-02-1997 06:13:14.576,31807488,30-07-2024 18:03:00.546,-0.06,
11-02-1997 06:13:14.576,31807488,30-07-2024 18:03:00.546,-0.06,
11-02-1997 06:13:14.576,31807488,30-07-2024 18:03:00.546,-0.06,
11-02-1997 06:13:14.576,31807488,30-07-2024 18:03:00.546,-0.06,
11-02-1997 06:13:14.576,31807488,30-07-2024 18:03:00.546,-0.05,
11-02-1997 06:13:14.576,31807488,30-07-2024 18:03:00.546,-0.05,
11-02-1997 06:13:14.576,31807488,30-07-2024 18:03:00.546,-0.05,
11-02-1997 06:13:14.576,31807488,30-07-2024 18:03:00.546,-0.06,
11-02-1997 06:13:14.576,31807488,30-07-2024 18:03:00.546,-0.06,
11-02-1997 06:13:14.576,31807488,30-07-2024 18:03:00.546,-0.05,
11-02-1997 06:13:14.576,31807488,30-07-2024 18:03:00.546,-0.06,
11-02-1997 06:13:14.576,31807488,30-07-2024 18:03:00.546,-0.06,
11-02-1997 06:13:14.576,31807488,30-07-2024 18:03:00.546,-0.06,
11-02-1997 06:13:14.576,31807488,30-07-2024 18:03:00.546,-0.06,
11-02-1997 06:13:14.576,31807488,30-07-2024 18:03:00.546,-0.06,
11-02-1997 06:13:14.576,31807488,30-07-2024 18:03:00.546,-0.06,
11-02-1997 06:13:14.576,31807488,30-07-2024 18:03:00.546,-0.06,
11-02-1997 06:13:14.576,31807488,30-07-2024 18:03:00.546,-0.06,
11-02-1997 06:13:14.576,31807488,30-07-2024 18:03:00.546,-0.06,
11-02-1997 06:13:14.576,31807488,30-07-2024 18:03:00.546,-0.05,
11-02-1997 06:13:14.576,31807488,30-07-2024 18:03:00.546,-0.04,
11-02-1997 06:13:14.576,31807488,30-07-2024 18:03:00.546,-0.04,
11-02-1997 06:13:14.576,31807488,30-07-2024 18:03:00.546,-0.03,
11-02-1997 06:13:14.576,31807488,30-07-2024 18:03:00.546,-0.03,
11-02-1997 06:13:14.576,31807488,30-07-2024 18:03:00.546,-0.02,
11-02-1997 06:13:14.576,31807488,30-07-2024 18:03:00.546,-0.01,
11-02-1997 06:13:14.576,31807488,30-07-2024 18:03:00.546,-0.01,
11-02-1997 06:13:14.576,31807488,30-07-2024 18:03:00.546,0,
11-02-1997 06:13:14.576,31807488,30-07-2024 18:03:00.546,0.01,
11-02-1997 06:13:14.576,31807488,30-07-2024 18:03:00.546,0.02,
11-02-1997 06:13:14.576,31807488,30-07-2024 18:03:00.546,0.03,
11-02-1997 06:13:14.576,31807488,30-07-2024 18:03:00.546,0.04,
11-02-1997 06:13:14.576,31807488,30-07-2024 18:03:00.546,0.05,
11-02-1997 06:13:14.576,31807488,30-07-2024 18:03:00.546,0.05,
11-02-1997 06:13:14.576,31807488,30-07-2024 18:03:00.546,0.05,
11-02-1997 06:13:14.576,31807488,30-07-2024 18:03:00.546,0.07,
11-02-1997 06:13:14.576,31807488,30-07-2024 18:03:00.546,0.07,
11-02-1997 06:13:14.576,31807488,30-07-2024 18:03:00.546,0.08,
11-02-1997 06:13:14.576,31807488,30-07-2024 18:03:00.546,0.08,
11-02-1997 06:13:14.576,31807488,30-07-2024 18:03:00.546,0.09,
11-02-1997 06:13:14.576,31807488,30-07-2024 18:03:00.546,0.1,
11-02-1997 06:13:14.576,31807488,30-07-2024 18:03:00.546,0.1,
11-02-1997 06:13:14.576,31807488,30-07-2024 18:03:00.546,0.1,
11-02-1997 06:13:14.576,31807488,30-07-2024 18:03:00.546,0.11,
11-02-1997 06:13:14.576,31807488,30-07-2024 18:03:00.546,0.11,
11-02-1997 06:13:14.576,31807488,30-07-2024 18:03:00.546,0.12,
11-02-1997 06:13:14.576,31807488,30-07-2024 18:03:00.546,0.12,
11-02-1997 06:13:14.576,31807488,30-07-2024 18:03:00.546,0.13,
11-02-1997 06:13:14.576,31807488,30-07-2024 18:03:00.546,0.13,
11-02-1997 06:13:14.576,31807488,30-07-2024 18:03:00.546,0.14,
11-02-1997 06:13:14.576,31807488,30-07-2024 18:03:00.546,0.13,
11-02-1997 06:13:14.576,31807488,30-07-2024 18:03:00.546,0.14,
11-02-1997 06:13:14.576,31807488,30-07-2024 18:03:00.546,0.14,
11-02-1997 06:13:14.576,31807488,30-07-2024 18:03:00.546,0.14,
11-02-1997 06:13:14.576,31807488,30-07-2024 18:03:00.546,0.15,
11-02-1997 06:13:14.576,31807488,30-07-2024 18:03:00.546,0.14,
11-02-1997 06:13:14.576,31807488,30-07-2024 18:03:00.546,0.14,
11-02-1997 06:13:14.576,31807488,30-07-2024 18:03:00.546,0.14,
11-02-1997 06:13:14.576,31807488,30-07-2024 18:03:00.546,0.14,
11-02-1997 06:13:14.576,31807488,30-07-2024 18:03:00.546,0.14,
11-02-1997 06:13:14.576,31807488,30-07-2024 18:03:00.546,0.15,
11-02-1997 06:13:14.576,31807488,30-07-2024 18:03:00.546,0.14,
11-02-1997 06:13:14.576,31807488,30-07-2024 18:03:00.546,0.14,
11-02-1997 06:13:14.576,31807488,30-07-2024 18:03:00.546,0.13,
11-02-1997 06:13:14.576,31807488,30-07-2024 18:03:00.546,0.13,
11-02-1997 06:13:14.576,31807488,30-07-2024 18:03:00.546,0.12,
11-02-1997 06:13:14.576,31807488,30-07-2024 18:03:00.546,0.12,
11-02-1997 06:13:14.576,31807488,30-07-2024 18:03:00.546,0.11,
11-02-1997 06:13:14.576,31807488,30-07-2024 18:03:00.546,0.12,
11-02-1997 06:13:14.576,31807488,30-07-2024 18:03:00.546,0.1,
11-02-1997 06:13:14.576,31807488,30-07-2024 18:03:00.546,0.1,
11-02-1997 06:13:14.576,31807488,30-07-2024 18:03:00.546,0.1,
11-02-1997 06:13:14.576,31807488,30-07-2024 18:03:00.546,0.1,
11-02-1997 06:13:14.576,31807488,30-07-2024 18:03:00.546,0.09,
11-02-1997 06:13:14.576,31807488,30-07-2024 18:03:00.546,0.08,
11-02-1997 06:13:14.576,31807488,30-07-2024 18:03:00.546,0.07,
11-02-1997 06:13:14.576,31807488,30-07-2024 18:03:00.546,0.06,
11-02-1997 06:13:14.576,31807488,30-07-2024 18:03:00.546,0.05,
11-02-1997 06:13:14.576,31807488,30-07-2024 18:03:00.546,0.05,
11-02-1997 06:13:14.576,31807488,30-07-2024 18:03:00.546,0.05,
11-02-1997 06:13:14.576,31807488,30-07-2024 18:03:00.546,0.03,
11-02-1997 06:13:14.576,31807488,30-07-2024 18:03:00.546,0.03,
11-02-1997 06:13:14.576,31807488,30-07-2024 18:03:00.546,0.02,
11-02-1997 06:13:14.576,31807488,30-07-2024 18:03:00.546,0.01,
11-02-1997 06:13:14.576,31807488,30-07-2024 18:03:00.546,0.01,
11-02-1997 06:13:14.576,31807488,30-07-2024 18:03:00.546,0,
11-02-1997 06:13:14.576,31807488,30-07-2024 18:03:00.546,-0.01,
11-02-1997 06:13:14.576,31807488,30-07-2024 18:03:00.546,-0.02,
11-02-1997 06:13:14.576,31807488,30-07-2024 18:03:00.546,-0.02,
11-02-1997 06:13:14.576,31807488,30-07-2024 18:03:00.546,-0.02,
11-02-1997 06:13:14.576,31807488,30-07-2024 18:03:00.546,-0.03,
11-02-1997 06:13:14.576,31807488,30-07-2024 18:03:00.546,-0.04,
11-02-1997 06:13:14.576,31807488,30-07-2024 18:03:00.546,-0.05,
11-02-1997 06:13:14.576,31807488,30-07-2024 18:03:00.546,-0.05,
11-02-1997 06:13:14.576,31807488,30-07-2024 18:03:00.546,-0.06,
11-02-1997 06:13:14.576,31807488,30-07-2024 18:03:00.546,-0.07,
11-02-1997 06:13:14.576,31807488,30-07-2024 18:03:00.546,-0.08,
11-02-1997 06:13:14.576,31807488,30-07-2024 18:03:00.546,-0.08,
11-02-1997 06:13:14.576,31807488,30-07-2024 18:03:00.546,-0.09,
11-02-1997 06:13:14.576,31807488,30-07-2024 18:03:00.546,-0.09,
11-02-1997 06:13:14.576,31807488,30-07-2024 18:03:00.546,-0.09,
11-02-1997 06:13:14.576,31807488,30-07-2024 18:03:00.546,-0.09,
11-02-1997 06:13:14.576,31807488,30-07-2024 18:03:00.546,-0.09,
11-02-1997 06:13:14.576,31807488,30-07-2024 18:03:00.546,-0.09,
11-02-1997 06:13:14.576,31807488,30-07-2024 18:03:00.546,-0.09,
11-02-1997 06:13:14.576,31807488,30-07-2024 18:03:00.546,-0.08,
11-02-1997 06:13:14.576,31807488,30-07-2024 18:03:00.546,-0.08,
11-02-1997 06:13:14.576,31807488,30-07-2024 18:03:00.546,-0.08,
11-02-1997 06:13:14.832,31809536,30-07-2024 18:03:00.550,-0.08,
11-02-1997 06:13:14.832,31809536,30-07-2024 18:03:00.550,-0.08,
11-02-1997 06:13:14.832,31809536,30-07-2024 18:03:00.550,-0.08,
11-02-1997 06:13:14.832,31809536,30-07-2024 18:03:00.550,-0.08,
11-02-1997 06:13:14.832,31809536,30-07-2024 18:03:00.550,-0.08,
11-02-1997 06:13:14.832,31809536,30-07-2024 18:03:00.550,-0.08,
11-02-1997 06:13:14.832,31809536,30-07-2024 18:03:00.550,-0.08,
11-02-1997 06:13:14.832,31809536,30-07-2024 18:03:00.550,-0.08,
11-02-1997 06:13:14.832,31809536,30-07-2024 18:03:00.550,-0.08,
11-02-1997 06:13:14.832,31809536,30-07-2024 18:03:00.550,-0.08,
11-02-1997 06:13:14.832,31809536,30-07-2024 18:03:00.550,-0.08,
11-02-1997 06:13:14.832,31809536,30-07-2024 18:03:00.550,-0.08,
11-02-1997 06:13:14.832,31809536,30-07-2024 18:03:00.550,-0.07,
11-02-1997 06:13:14.832,31809536,30-07-2024 18:03:00.550,-0.08,
11-02-1997 06:13:14.832,31809536,30-07-2024 18:03:00.550,-0.08,
11-02-1997 06:13:14.832,31809536,30-07-2024 18:03:00.550,-0.08,
11-02-1997 06:13:14.832,31809536,30-07-2024 18:03:00.550,-0.08,
11-02-1997 06:13:14.832,31809536,30-07-2024 18:03:00.550,-0.08,
11-02-1997 06:13:14.832,31809536,30-07-2024 18:03:00.550,-0.08,
11-02-1997 06:13:14.832,31809536,30-07-2024 18:03:00.550,-0.07,
11-02-1997 06:13:14.832,31809536,30-07-2024 18:03:00.550,-0.07,
11-02-1997 06:13:14.832,31809536,30-07-2024 18:03:00.550,-0.07,
11-02-1997 06:13:14.832,31809536,30-07-2024 18:03:00.550,-0.07,
11-02-1997 06:13:14.832,31809536,30-07-2024 18:03:00.550,-0.07,
11-02-1997 06:13:14.832,31809536,30-07-2024 18:03:00.550,-0.07,
11-02-1997 06:13:14.832,31809536,30-07-2024 18:03:00.550,-0.08,
11-02-1997 06:13:14.832,31809536,30-07-2024 18:03:00.550,-0.07,
11-02-1997 06:13:14.832,31809536,30-07-2024 18:03:00.550,-0.06,
11-02-1997 06:13:14.832,31809536,30-07-2024 18:03:00.550,-0.06,
11-02-1997 06:13:14.832,31809536,30-07-2024 18:03:00.550,-0.06,
11-02-1997 06:13:14.832,31809536,30-07-2024 18:03:00.550,-0.06,
11-02-1997 06:13:14.832,31809536,30-07-2024 18:03:00.550,-0.06,
11-02-1997 06:13:14.832,31809536,30-07-2024 18:03:00.550,-0.06,
11-02-1997 06:13:14.832,31809536,30-07-2024 18:03:00.550,-0.06,
11-02-1997 06:13:14.832,31809536,30-07-2024 18:03:00.550,-0.07,
11-02-1997 06:13:14.832,31809536,30-07-2024 18:03:00.550,-0.07,
11-02-1997 06:13:14.832,31809536,30-07-2024 18:03:00.550,-0.07,
11-02-1997 06:13:14.832,31809536,30-07-2024 18:03:00.550,-0.07,
11-02-1997 06:13:14.832,31809536,30-07-2024 18:03:00.550,-0.07,
11-02-1997 06:13:14.832,31809536,30-07-2024 18:03:00.550,-0.07,
11-02-1997 06:13:14.832,31809536,30-07-2024 18:03:00.550,-0.06,
11-02-1997 06:13:14.832,31809536,30-07-2024 18:03:00.550,-0.06,
11-02-1997 06:13:14.832,31809536,30-07-2024 18:03:00.550,-0.06,
11-02-1997 06:13:14.832,31809536,30-07-2024 18:03:00.550,-0.06,
11-02-1997 06:13:14.832,31809536,30-07-2024 18:03:00.550,-0.06,
11-02-1997 06:13:14.832,31809536,30-07-2024 18:03:00.550,-0.06,
11-02-1997 06:13:14.832,31809536,30-07-2024 18:03:00.550,-0.06,
11-02-1997 06:13:14.832,31809536,30-07-2024 18:03:00.550,-0.06,
11-02-1997 06:13:14.832,31809536,30-07-2024 18:03:00.550,-0.06,
11-02-1997 06:13:14.832,31809536,30-07-2024 18:03:00.550,-0.05,
11-02-1997 06:13:14.832,31809536,30-07-2024 18:03:00.550,-0.06,
11-02-1997 06:13:14.832,31809536,30-07-2024 18:03:00.550,-0.06,
11-02-1997 06:13:14.832,31809536,30-07-2024 18:03:00.550,-0.07,
11-02-1997 06:13:14.832,31809536,30-07-2024 18:03:00.550,-0.07,
11-02-1997 06:13:14.832,31809536,30-07-2024 18:03:00.550,-0.07,
11-02-1997 06:13:14.832,31809536,30-07-2024 18:03:00.550,-0.06,
11-02-1997 06:13:14.832,31809536,30-07-2024 18:03:00.550,-0.06,
11-02-1997 06:13:14.832,31809536,30-07-2024 18:03:00.550,-0.06,
11-02-1997 06:13:14.832,31809536,30-07-2024 18:03:00.550,-0.05,
11-02-1997 06:13:14.832,31809536,30-07-2024 18:03:00.550,-0.05,
11-02-1997 06:13:14.832,31809536,30-07-2024 18:03:00.550,-0.06,
11-02-1997 06:13:14.832,31809536,30-07-2024 18:03:00.550,-0.06,
11-02-1997 06:13:14.832,31809536,30-07-2024 18:03:00.550,-0.06,
11-02-1997 06:13:14.832,31809536,30-07-2024 18:03:00.550,-0.06,
11-02-1997 06:13:14.832,31809536,30-07-2024 18:03:00.550,-0.05,
11-02-1997 06:13:14.832,31809536,30-07-2024 18:03:00.550,-0.05,
11-02-1997 06:13:14.832,31809536,30-07-2024 18:03:00.550,-0.06,
11-02-1997 06:13:14.832,31809536,30-07-2024 18:03:00.550,-0.06,
11-02-1997 06:13:14.832,31809536,30-07-2024 18:03:00.550,-0.06,
11-02-1997 06:13:14.832,31809536,30-07-2024 18:03:00.550,-0.05,
11-02-1997 06:13:14.832,31809536,30-07-2024 18:03:00.550,-0.05,
11-02-1997 06:13:14.832,31809536,30-07-2024 18:03:00.550,-0.06,
11-02-1997 06:13:14.832,31809536,30-07-2024 18:03:00.550,-0.06,
11-02-1997 06:13:14.832,31809536,30-07-2024 18:03:00.550,-0.06,
11-02-1997 06:13:14.832,31809536,30-07-2024 18:03:00.550,-0.05,
11-02-1997 06:13:14.832,31809536,30-07-2024 18:03:00.550,-0.05,
11-02-1997 06:13:14.832,31809536,30-07-2024 18:03:00.550,-0.05,
11-02-1997 06:13:14.832,31809536,30-07-2024 18:03:00.550,-0.05,
11-02-1997 06:13:14.832,31809536,30-07-2024 18:03:00.550,-0.05,
11-02-1997 06:13:14.832,31809536,30-07-2024 18:03:00.550,-0.05,
11-02-1997 06:13:14.832,31809536,30-07-2024 18:03:00.550,-0.05,
11-02-1997 06:13:14.832,31809536,30-07-2024 18:03:00.550,-0.05,
11-02-1997 06:13:14.832,31809536,30-07-2024 18:03:00.550,-0.06,
11-02-1997 06:13:14.832,31809536,30-07-2024 18:03:00.550,-0.06,
11-02-1997 06:13:14.832,31809536,30-07-2024 18:03:00.550,-0.06,
11-02-1997 06:13:14.832,31809536,30-07-2024 18:03:00.550,-0.06,
11-02-1997 06:13:14.832,31809536,30-07-2024 18:03:00.550,-0.06,
11-02-1997 06:13:14.832,31809536,30-07-2024 18:03:00.550,-0.06,
11-02-1997 06:13:14.832,31809536,30-07-2024 18:03:00.550,-0.06,
11-02-1997 06:13:14.832,31809536,30-07-2024 18:03:00.550,-0.06,
11-02-1997 06:13:14.832,31809536,30-07-2024 18:03:00.550,-0.05,
11-02-1997 06:13:14.832,31809536,30-07-2024 18:03:00.550,-0.05,
11-02-1997 06:13:14.832,31809536,30-07-2024 18:03:00.550,-0.05,
11-02-1997 06:13:14.832,31809536,30-07-2024 18:03:00.550,-0.05,
11-02-1997 06:13:14.832,31809536,30-07-2024 18:03:00.550,-0.05,
11-02-1997 06:13:14.832,31809536,30-07-2024 18:03:00.550,-0.05,
11-02-1997 06:13:14.832,31809536,30-07-2024 18:03:00.550,-0.04,
11-02-1997 06:13:14.832,31809536,30-07-2024 18:03:00.550,-0.04,
11-02-1997 06:13:14.832,31809536,30-07-2024 18:03:00.550,-0.04,
11-02-1997 06:13:14.832,31809536,30-07-2024 18:03:00.550,-0.04,
11-02-1997 06:13:14.832,31809536,30-07-2024 18:03:00.550,-0.05,
11-02-1997 06:13:14.832,31809536,30-07-2024 18:03:00.550,-0.05,
11-02-1997 06:13:14.832,31809536,30-07-2024 18:03:00.550,-0.05,
11-02-1997 06:13:14.832,31809536,30-07-2024 18:03:00.550,-0.05,
11-02-1997 06:13:14.832,31809536,30-07-2024 18:03:00.550,-0.05,
11-02-1997 06:13:14.832,31809536,30-07-2024 18:03:00.550,-0.05,
11-02-1997 06:13:14.832,31809536,30-07-2024 18:03:00.550,-0.04,
11-02-1997 06:13:14.832,31809536,30-07-2024 18:03:00.550,-0.03,
11-02-1997 06:13:14.832,31809536,30-07-2024 18:03:00.550,-0.03,
11-02-1997 06:13:14.832,31809536,30-07-2024 18:03:00.550,-0.03,
11-02-1997 06:13:14.832,31809536,30-07-2024 18:03:00.550,-0.02,
11-02-1997 06:13:14.832,31809536,30-07-2024 18:03:00.550,-0.02,
11-02-1997 06:13:14.832,31809536,30-07-2024 18:03:00.550,-0.02,
11-02-1997 06:13:14.832,31809536,30-07-2024 18:03:00.550,-0.01,
11-02-1997 06:13:14.832,31809536,30-07-2024 18:03:00.550,-0,
11-02-1997 06:13:14.832,31809536,30-07-2024 18:03:00.550,0.01,
11-02-1997 06:13:14.832,31809536,30-07-2024 18:03:00.550,0.02,
11-02-1997 06:13:14.832,31809536,30-07-2024 18:03:00.550,0.02,
11-02-1997 06:13:14.832,31809536,30-07-2024 18:03:00.550,0.03,
11-02-1997 06:13:14.832,31809536,30-07-2024 18:03:00.550,0.03,
11-02-1997 06:13:14.832,31809536,30-07-2024 18:03:00.550,0.03,
11-02-1997 06:13:14.832,31809536,30-07-2024 18:03:00.550,0.04,
11-02-1997 06:13:14.832,31809536,30-07-2024 18:03:00.550,0.04,
11-02-1997 06:13:14.832,31809536,30-07-2024 18:03:00.550,0.04,
11-02-1997 06:13:14.832,31809536,30-07-2024 18:03:00.550,0.05,
11-02-1997 06:13:14.832,31809536,30-07-2024 18:03:00.550,0.04,
11-02-1997 06:13:14.832,31809536,30-07-2024 18:03:00.550,0.05,
11-02-1997 06:13:14.832,31809536,30-07-2024 18:03:00.550,0.06,
11-02-1997 06:13:15.088,31811584,30-07-2024 18:03:00.553,0.06,
11-02-1997 06:13:15.088,31811584,30-07-2024 18:03:00.553,0.06,
11-02-1997 06:13:15.088,31811584,30-07-2024 18:03:00.553,0.06,
11-02-1997 06:13:15.088,31811584,30-07-2024 18:03:00.553,0.05,
11-02-1997 06:13:15.088,31811584,30-07-2024 18:03:00.553,0.04,
11-02-1997 06:13:15.088,31811584,30-07-2024 18:03:00.553,0.04,
11-02-1997 06:13:15.088,31811584,30-07-2024 18:03:00.553,0.04,
11-02-1997 06:13:15.088,31811584,30-07-2024 18:03:00.553,0.04,
11-02-1997 06:13:15.088,31811584,30-07-2024 18:03:00.553,0.03,
11-02-1997 06:13:15.088,31811584,30-07-2024 18:03:00.553,0.02,
11-02-1997 06:13:15.088,31811584,30-07-2024 18:03:00.553,0.02,
11-02-1997 06:13:15.088,31811584,30-07-2024 18:03:00.553,0.01,
11-02-1997 06:13:15.088,31811584,30-07-2024 18:03:00.553,0.01,
11-02-1997 06:13:15.088,31811584,30-07-2024 18:03:00.553,-0,
11-02-1997 06:13:15.088,31811584,30-07-2024 18:03:00.553,-0.01,
11-02-1997 06:13:15.088,31811584,30-07-2024 18:03:00.553,-0.02,
11-02-1997 06:13:15.088,31811584,30-07-2024 18:03:00.553,-0.03,
11-02-1997 06:13:15.088,31811584,30-07-2024 18:03:00.553,-0.03,
11-02-1997 06:13:15.088,31811584,30-07-2024 18:03:00.553,-0.03,
11-02-1997 06:13:15.088,31811584,30-07-2024 18:03:00.553,-0.04,
11-02-1997 06:13:15.088,31811584,30-07-2024 18:03:00.553,-0.05,
11-02-1997 06:13:15.088,31811584,30-07-2024 18:03:00.553,-0.04,
11-02-1997 06:13:15.088,31811584,30-07-2024 18:03:00.553,-0.05,
11-02-1997 06:13:15.088,31811584,30-07-2024 18:03:00.553,-0.05,
11-02-1997 06:13:15.088,31811584,30-07-2024 18:03:00.553,-0.05,
11-02-1997 06:13:15.088,31811584,30-07-2024 18:03:00.553,-0.05,
11-02-1997 06:13:15.088,31811584,30-07-2024 18:03:00.553,-0.05,
11-02-1997 06:13:15.088,31811584,30-07-2024 18:03:00.553,-0.06,
11-02-1997 06:13:15.088,31811584,30-07-2024 18:03:00.553,-0.06,
11-02-1997 06:13:15.088,31811584,30-07-2024 18:03:00.553,-0.05,
11-02-1997 06:13:15.088,31811584,30-07-2024 18:03:00.553,-0.05,
11-02-1997 06:13:15.088,31811584,30-07-2024 18:03:00.553,-0.04,
11-02-1997 06:13:15.088,31811584,30-07-2024 18:03:00.553,-0.04,
11-02-1997 06:13:15.088,31811584,30-07-2024 18:03:00.553,-0.04,
11-02-1997 06:13:15.088,31811584,30-07-2024 18:03:00.553,-0.03,
11-02-1997 06:13:15.088,31811584,30-07-2024 18:03:00.553,-0.04,
11-02-1997 06:13:15.088,31811584,30-07-2024 18:03:00.553,-0.04,
11-02-1997 06:13:15.088,31811584,30-07-2024 18:03:00.553,-0.04,
11-02-1997 06:13:15.088,31811584,30-07-2024 18:03:00.553,-0.04,
11-02-1997 06:13:15.088,31811584,30-07-2024 18:03:00.553,-0.04,
11-02-1997 06:13:15.088,31811584,30-07-2024 18:03:00.553,-0.04,
11-02-1997 06:13:15.088,31811584,30-07-2024 18:03:00.553,-0.04,
11-02-1997 06:13:15.088,31811584,30-07-2024 18:03:00.553,-0.05,
11-02-1997 06:13:15.088,31811584,30-07-2024 18:03:00.553,-0.05,
11-02-1997 06:13:15.088,31811584,30-07-2024 18:03:00.553,-0.05,
11-02-1997 06:13:15.088,31811584,30-07-2024 18:03:00.553,-0.04,
11-02-1997 06:13:15.088,31811584,30-07-2024 18:03:00.553,-0.03,
11-02-1997 06:13:15.088,31811584,30-07-2024 18:03:00.553,-0.04,
11-02-1997 06:13:15.088,31811584,30-07-2024 18:03:00.553,-0.04,
11-02-1997 06:13:15.088,31811584,30-07-2024 18:03:00.553,-0.04,
11-02-1997 06:13:15.088,31811584,30-07-2024 18:03:00.553,-0.04,
11-02-1997 06:13:15.088,31811584,30-07-2024 18:03:00.553,-0.04,
11-02-1997 06:13:15.088,31811584,30-07-2024 18:03:00.553,-0.04,
11-02-1997 06:13:15.088,31811584,30-07-2024 18:03:00.553,-0.04,
11-02-1997 06:13:15.088,31811584,30-07-2024 18:03:00.553,-0.04,
11-02-1997 06:13:15.088,31811584,30-07-2024 18:03:00.553,-0.04,
11-02-1997 06:13:15.088,31811584,30-07-2024 18:03:00.553,-0.04,
11-02-1997 06:13:15.088,31811584,30-07-2024 18:03:00.553,-0.04,
11-02-1997 06:13:15.088,31811584,30-07-2024 18:03:00.553,-0.04,
11-02-1997 06:13:15.088,31811584,30-07-2024 18:03:00.553,-0.05,
11-02-1997 06:13:15.088,31811584,30-07-2024 18:03:00.553,-0.08,
11-02-1997 06:13:15.088,31811584,30-07-2024 18:03:00.553,-0.1,
11-02-1997 06:13:15.088,31811584,30-07-2024 18:03:00.553,-0.11,
11-02-1997 06:13:15.088,31811584,30-07-2024 18:03:00.553,-0.13,
11-02-1997 06:13:15.088,31811584,30-07-2024 18:03:00.553,-0.16,
11-02-1997 06:13:15.088,31811584,30-07-2024 18:03:00.553,-0.15,
11-02-1997 06:13:15.088,31811584,30-07-2024 18:03:00.553,-0.14,
11-02-1997 06:13:15.088,31811584,30-07-2024 18:03:00.553,-0.11,
11-02-1997 06:13:15.088,31811584,30-07-2024 18:03:00.553,-0.05,
11-02-1997 06:13:15.088,31811584,30-07-2024 18:03:00.553,0.02,
11-02-1997 06:13:15.088,31811584,30-07-2024 18:03:00.553,0.09,
11-02-1997 06:13:15.088,31811584,30-07-2024 18:03:00.553,0.17,
11-02-1997 06:13:15.088,31811584,30-07-2024 18:03:00.553,0.23,
11-02-1997 06:13:15.088,31811584,30-07-2024 18:03:00.553,0.32,
11-02-1997 06:13:15.088,31811584,30-07-2024 18:03:00.553,0.43,
11-02-1997 06:13:15.088,31811584,30-07-2024 18:03:00.553,0.51,
11-02-1997 06:13:15.088,31811584,30-07-2024 18:03:00.553,0.59,
11-02-1997 06:13:15.088,31811584,30-07-2024 18:03:00.553,0.62,
11-02-1997 06:13:15.088,31811584,30-07-2024 18:03:00.553,0.62,
11-02-1997 06:13:15.088,31811584,30-07-2024 18:03:00.553,0.6,
11-02-1997 06:13:15.088,31811584,30-07-2024 18:03:00.553,0.55,
11-02-1997 06:13:15.088,31811584,30-07-2024 18:03:00.553,0.49,
11-02-1997 06:13:15.088,31811584,30-07-2024 18:03:00.553,0.43,
11-02-1997 06:13:15.088,31811584,30-07-2024 18:03:00.553,0.36,
11-02-1997 06:13:15.088,31811584,30-07-2024 18:03:00.553,0.27,
11-02-1997 06:13:15.088,31811584,30-07-2024 18:03:00.553,0.17,
11-02-1997 06:13:15.088,31811584,30-07-2024 18:03:00.553,0.09,
11-02-1997 06:13:15.088,31811584,30-07-2024 18:03:00.553,0.03,
11-02-1997 06:13:15.088,31811584,30-07-2024 18:03:00.553,-0.02,
11-02-1997 06:13:15.088,31811584,30-07-2024 18:03:00.553,-0.06,
11-02-1997 06:13:15.088,31811584,30-07-2024 18:03:00.553,-0.1,
11-02-1997 06:13:15.088,31811584,30-07-2024 18:03:00.553,-0.13,
11-02-1997 06:13:15.088,31811584,30-07-2024 18:03:00.553,-0.13,
11-02-1997 06:13:15.088,31811584,30-07-2024 18:03:00.553,-0.14,
11-02-1997 06:13:15.088,31811584,30-07-2024 18:03:00.553,-0.14,
11-02-1997 06:13:15.088,31811584,30-07-2024 18:03:00.553,-0.12,
11-02-1997 06:13:15.088,31811584,30-07-2024 18:03:00.553,-0.1,
11-02-1997 06:13:15.088,31811584,30-07-2024 18:03:00.553,-0.09,
11-02-1997 06:13:15.088,31811584,30-07-2024 18:03:00.553,-0.08,
11-02-1997 06:13:15.088,31811584,30-07-2024 18:03:00.553,-0.08,
11-02-1997 06:13:15.088,31811584,30-07-2024 18:03:00.553,-0.07,
11-02-1997 06:13:15.088,31811584,30-07-2024 18:03:00.553,-0.07,
11-02-1997 06:13:15.088,31811584,30-07-2024 18:03:00.553,-0.07,
11-02-1997 06:13:15.088,31811584,30-07-2024 18:03:00.553,-0.07,
11-02-1997 06:13:15.088,31811584,30-07-2024 18:03:00.553,-0.07,
11-02-1997 06:13:15.088,31811584,30-07-2024 18:03:00.553,-0.07,
11-02-1997 06:13:15.088,31811584,30-07-2024 18:03:00.553,-0.07,
11-02-1997 06:13:15.088,31811584,30-07-2024 18:03:00.553,-0.07,
11-02-1997 06:13:15.088,31811584,30-07-2024 18:03:00.553,-0.06,
11-02-1997 06:13:15.088,31811584,30-07-2024 18:03:00.553,-0.06,
11-02-1997 06:13:15.088,31811584,30-07-2024 18:03:00.553,-0.06,
11-02-1997 06:13:15.088,31811584,30-07-2024 18:03:00.553,-0.05,
11-02-1997 06:13:15.088,31811584,30-07-2024 18:03:00.553,-0.05,
11-02-1997 06:13:15.088,31811584,30-07-2024 18:03:00.553,-0.07,
11-02-1997 06:13:15.088,31811584,30-07-2024 18:03:00.553,-0.07,
11-02-1997 06:13:15.088,31811584,30-07-2024 18:03:00.553,-0.07,
11-02-1997 06:13:15.088,31811584,30-07-2024 18:03:00.553,-0.07,
11-02-1997 06:13:15.088,31811584,30-07-2024 18:03:00.553,-0.07,
11-02-1997 06:13:15.088,31811584,30-07-2024 18:03:00.553,-0.07,
11-02-1997 06:13:15.088,31811584,30-07-2024 18:03:00.553,-0.07,
11-02-1997 06:13:15.088,31811584,30-07-2024 18:03:00.553,-0.07,
11-02-1997 06:13:15.088,31811584,30-07-2024 18:03:00.553,-0.06,
11-02-1997 06:13:15.088,31811584,30-07-2024 18:03:00.553,-0.06,
11-02-1997 06:13:15.088,31811584,30-07-2024 18:03:00.553,-0.06,
11-02-1997 06:13:15.088,31811584,30-07-2024 18:03:00.553,-0.06,
11-02-1997 06:13:15.088,31811584,30-07-2024 18:03:00.553,-0.06,
11-02-1997 06:13:15.088,31811584,30-07-2024 18:03:00.553,-0.06,
11-02-1997 06:13:15.088,31811584,30-07-2024 18:03:00.553,-0.06,
11-02-1997 06:13:15.344,31813632,30-07-2024 18:03:00.555,-0.06,
11-02-1997 06:13:15.344,31813632,30-07-2024 18:03:00.555,-0.07,
11-02-1997 06:13:15.344,31813632,30-07-2024 18:03:00.555,-0.07,
11-02-1997 06:13:15.344,31813632,30-07-2024 18:03:00.555,-0.07,
11-02-1997 06:13:15.344,31813632,30-07-2024 18:03:00.555,-0.07,
11-02-1997 06:13:15.344,31813632,30-07-2024 18:03:00.555,-0.06,
11-02-1997 06:13:15.344,31813632,30-07-2024 18:03:00.555,-0.06,
11-02-1997 06:13:15.344,31813632,30-07-2024 18:03:00.555,-0.06,
11-02-1997 06:13:15.344,31813632,30-07-2024 18:03:00.555,-0.06,
11-02-1997 06:13:15.344,31813632,30-07-2024 18:03:00.555,-0.06,
11-02-1997 06:13:15.344,31813632,30-07-2024 18:03:00.555,-0.06,
11-02-1997 06:13:15.344,31813632,30-07-2024 18:03:00.555,-0.06,
11-02-1997 06:13:15.344,31813632,30-07-2024 18:03:00.555,-0.06,
11-02-1997 06:13:15.344,31813632,30-07-2024 18:03:00.555,-0.05,
11-02-1997 06:13:15.344,31813632,30-07-2024 18:03:00.555,-0.05,
11-02-1997 06:13:15.344,31813632,30-07-2024 18:03:00.555,-0.05,
11-02-1997 06:13:15.344,31813632,30-07-2024 18:03:00.555,-0.05,
11-02-1997 06:13:15.344,31813632,30-07-2024 18:03:00.555,-0.05,
11-02-1997 06:13:15.344,31813632,30-07-2024 18:03:00.555,-0.04,
11-02-1997 06:13:15.344,31813632,30-07-2024 18:03:00.555,-0.04,
11-02-1997 06:13:15.344,31813632,30-07-2024 18:03:00.555,-0.04,
11-02-1997 06:13:15.344,31813632,30-07-2024 18:03:00.555,-0.05,
11-02-1997 06:13:15.344,31813632,30-07-2024 18:03:00.555,-0.05,
11-02-1997 06:13:15.344,31813632,30-07-2024 18:03:00.555,-0.05,
11-02-1997 06:13:15.344,31813632,30-07-2024 18:03:00.555,-0.05,
11-02-1997 06:13:15.344,31813632,30-07-2024 18:03:00.555,-0.05,
11-02-1997 06:13:15.344,31813632,30-07-2024 18:03:00.555,-0.05,
11-02-1997 06:13:15.344,31813632,30-07-2024 18:03:00.555,-0.05,
11-02-1997 06:13:15.344,31813632,30-07-2024 18:03:00.555,-0.05,
11-02-1997 06:13:15.344,31813632,30-07-2024 18:03:00.555,-0.04,
11-02-1997 06:13:15.344,31813632,30-07-2024 18:03:00.555,-0.03,
11-02-1997 06:13:15.344,31813632,30-07-2024 18:03:00.555,-0.03,
11-02-1997 06:13:15.344,31813632,30-07-2024 18:03:00.555,-0.03,
11-02-1997 06:13:15.344,31813632,30-07-2024 18:03:00.555,-0.03,
11-02-1997 06:13:15.344,31813632,30-07-2024 18:03:00.555,-0.02,
11-02-1997 06:13:15.344,31813632,30-07-2024 18:03:00.555,-0.01,
11-02-1997 06:13:15.344,31813632,30-07-2024 18:03:00.555,-0.01,
11-02-1997 06:13:15.344,31813632,30-07-2024 18:03:00.555,0,
11-02-1997 06:13:15.344,31813632,30-07-2024 18:03:00.555,0.01,
11-02-1997 06:13:15.344,31813632,30-07-2024 18:03:00.555,0.02,
11-02-1997 06:13:15.344,31813632,30-07-2024 18:03:00.555,0.03,
11-02-1997 06:13:15.344,31813632,30-07-2024 18:03:00.555,0.04,
11-02-1997 06:13:15.344,31813632,30-07-2024 18:03:00.555,0.05,
11-02-1997 06:13:15.344,31813632,30-07-2024 18:03:00.555,0.06,
11-02-1997 06:13:15.344,31813632,30-07-2024 18:03:00.555,0.06,
11-02-1997 06:13:15.344,31813632,30-07-2024 18:03:00.555,0.07,
11-02-1997 06:13:15.344,31813632,30-07-2024 18:03:00.555,0.08,
11-02-1997 06:13:15.344,31813632,30-07-2024 18:03:00.555,0.08,
11-02-1997 06:13:15.344,31813632,30-07-2024 18:03:00.555,0.08,
11-02-1997 06:13:15.344,31813632,30-07-2024 18:03:00.555,0.09,
11-02-1997 06:13:15.344,31813632,30-07-2024 18:03:00.555,0.1,
11-02-1997 06:13:15.344,31813632,30-07-2024 18:03:00.555,0.11,
11-02-1997 06:13:15.344,31813632,30-07-2024 18:03:00.555,0.11,
11-02-1997 06:13:15.344,31813632,30-07-2024 18:03:00.555,0.12,
11-02-1997 06:13:15.344,31813632,30-07-2024 18:03:00.555,0.12,
11-02-1997 06:13:15.344,31813632,30-07-2024 18:03:00.555,0.12,
11-02-1997 06:13:15.344,31813632,30-07-2024 18:03:00.555,0.13,
11-02-1997 06:13:15.344,31813632,30-07-2024 18:03:00.555,0.13,
11-02-1997 06:13:15.344,31813632,30-07-2024 18:03:00.555,0.13,
11-02-1997 06:13:15.344,31813632,30-07-2024 18:03:00.555,0.13,
11-02-1997 06:13:15.344,31813632,30-07-2024 18:03:00.555,0.14,
11-02-1997 06:13:15.344,31813632,30-07-2024 18:03:00.555,0.14,
11-02-1997 06:13:15.344,31813632,30-07-2024 18:03:00.555,0.14,
11-02-1997 06:13:15.344,31813632,30-07-2024 18:03:00.555,0.15,
11-02-1997 06:13:15.344,31813632,30-07-2024 18:03:00.555,0.14,
11-02-1997 06:13:15.344,31813632,30-07-2024 18:03:00.555,0.14,
11-02-1997 06:13:15.344,31813632,30-07-2024 18:03:00.555,0.15,
11-02-1997 06:13:15.344,31813632,30-07-2024 18:03:00.555,0.15,
11-02-1997 06:13:15.344,31813632,30-07-2024 18:03:00.555,0.15,
11-02-1997 06:13:15.344,31813632,30-07-2024 18:03:00.555,0.15,
11-02-1997 06:13:15.344,31813632,30-07-2024 18:03:00.555,0.14,
11-02-1997 06:13:15.344,31813632,30-07-2024 18:03:00.555,0.14,
11-02-1997 06:13:15.344,31813632,30-07-2024 18:03:00.555,0.14,
11-02-1997 06:13:15.344,31813632,30-07-2024 18:03:00.555,0.14,
11-02-1997 06:13:15.344,31813632,30-07-2024 18:03:00.555,0.13,
11-02-1997 06:13:15.344,31813632,30-07-2024 18:03:00.555,0.14,
11-02-1997 06:13:15.344,31813632,30-07-2024 18:03:00.555,0.13,
11-02-1997 06:13:15.344,31813632,30-07-2024 18:03:00.555,0.13,
11-02-1997 06:13:15.344,31813632,30-07-2024 18:03:00.555,0.11,
11-02-1997 06:13:15.344,31813632,30-07-2024 18:03:00.555,0.12,
11-02-1997 06:13:15.344,31813632,30-07-2024 18:03:00.555,0.11,
11-02-1997 06:13:15.344,31813632,30-07-2024 18:03:00.555,0.1,
11-02-1997 06:13:15.344,31813632,30-07-2024 18:03:00.555,0.1,
11-02-1997 06:13:15.344,31813632,30-07-2024 18:03:00.555,0.09,
11-02-1997 06:13:15.344,31813632,30-07-2024 18:03:00.555,0.08,
11-02-1997 06:13:15.344,31813632,30-07-2024 18:03:00.555,0.08,
11-02-1997 06:13:15.344,31813632,30-07-2024 18:03:00.555,0.07,
11-02-1997 06:13:15.344,31813632,30-07-2024 18:03:00.555,0.07,
11-02-1997 06:13:15.344,31813632,30-07-2024 18:03:00.555,0.06,
11-02-1997 06:13:15.344,31813632,30-07-2024 18:03:00.555,0.06,
11-02-1997 06:13:15.344,31813632,30-07-2024 18:03:00.555,0.05,
11-02-1997 06:13:15.344,31813632,30-07-2024 18:03:00.555,0.05,
11-02-1997 06:13:15.344,31813632,30-07-2024 18:03:00.555,0.03,
11-02-1997 06:13:15.344,31813632,30-07-2024 18:03:00.555,0.03,
11-02-1997 06:13:15.344,31813632,30-07-2024 18:03:00.555,0.03,
11-02-1997 06:13:15.344,31813632,30-07-2024 18:03:00.555,0.02,
11-02-1997 06:13:15.344,31813632,30-07-2024 18:03:00.555,0.01,
11-02-1997 06:13:15.344,31813632,30-07-2024 18:03:00.555,-0.01,
11-02-1997 06:13:15.344,31813632,30-07-2024 18:03:00.555,-0.01,
11-02-1997 06:13:15.344,31813632,30-07-2024 18:03:00.555,-0.02,
11-02-1997 06:13:15.344,31813632,30-07-2024 18:03:00.555,-0.03,
11-02-1997 06:13:15.344,31813632,30-07-2024 18:03:00.555,-0.04,
11-02-1997 06:13:15.344,31813632,30-07-2024 18:03:00.555,-0.04,
11-02-1997 06:13:15.344,31813632,30-07-2024 18:03:00.555,-0.05,
11-02-1997 06:13:15.344,31813632,30-07-2024 18:03:00.555,-0.05,
11-02-1997 06:13:15.344,31813632,30-07-2024 18:03:00.555,-0.06,
11-02-1997 06:13:15.344,31813632,30-07-2024 18:03:00.555,-0.07,
11-02-1997 06:13:15.344,31813632,30-07-2024 18:03:00.555,-0.08,
11-02-1997 06:13:15.344,31813632,30-07-2024 18:03:00.555,-0.08,
11-02-1997 06:13:15.344,31813632,30-07-2024 18:03:00.555,-0.08,
11-02-1997 06:13:15.344,31813632,30-07-2024 18:03:00.555,-0.09,
11-02-1997 06:13:15.344,31813632,30-07-2024 18:03:00.555,-0.09,
11-02-1997 06:13:15.344,31813632,30-07-2024 18:03:00.555,-0.08,
11-02-1997 06:13:15.344,31813632,30-07-2024 18:03:00.555,-0.08,
11-02-1997 06:13:15.344,31813632,30-07-2024 18:03:00.555,-0.08,
11-02-1997 06:13:15.344,31813632,30-07-2024 18:03:00.555,-0.08,
11-02-1997 06:13:15.344,31813632,30-07-2024 18:03:00.555,-0.08,
11-02-1997 06:13:15.344,31813632,30-07-2024 18:03:00.555,-0.09,
11-02-1997 06:13:15.344,31813632,30-07-2024 18:03:00.555,-0.09,
11-02-1997 06:13:15.344,31813632,30-07-2024 18:03:00.555,-0.09,
11-02-1997 06:13:15.344,31813632,30-07-2024 18:03:00.555,-0.08,
11-02-1997 06:13:15.344,31813632,30-07-2024 18:03:00.555,-0.08,
11-02-1997 06:13:15.344,31813632,30-07-2024 18:03:00.555,-0.08,
11-02-1997 06:13:15.344,31813632,30-07-2024 18:03:00.555,-0.08,
11-02-1997 06:13:15.344,31813632,30-07-2024 18:03:00.555,-0.08,
11-02-1997 06:13:15.344,31813632,30-07-2024 18:03:00.555,-0.08,
11-02-1997 06:13:15.344,31813632,30-07-2024 18:03:00.555,-0.08,
11-02-1997 06:13:15.344,31813632,30-07-2024 18:03:00.555,-0.08,
11-02-1997 06:13:15.600,31815680,30-07-2024 18:03:01.565,-0.08,
11-02-1997 06:13:15.600,31815680,30-07-2024 18:03:01.565,-0.08,
11-02-1997 06:13:15.600,31815680,30-07-2024 18:03:01.565,-0.07,
11-02-1997 06:13:15.600,31815680,30-07-2024 18:03:01.565,-0.07,
11-02-1997 06:13:15.600,31815680,30-07-2024 18:03:01.565,-0.07,
11-02-1997 06:13:15.600,31815680,30-07-2024 18:03:01.565,-0.08,
11-02-1997 06:13:15.600,31815680,30-07-2024 18:03:01.565,-0.07,
11-02-1997 06:13:15.600,31815680,30-07-2024 18:03:01.565,-0.07,
11-02-1997 06:13:15.600,31815680,30-07-2024 18:03:01.565,-0.07,
11-02-1997 06:13:15.600,31815680,30-07-2024 18:03:01.565,-0.07,
11-02-1997 06:13:15.600,31815680,30-07-2024 18:03:01.565,-0.07,
11-02-1997 06:13:15.600,31815680,30-07-2024 18:03:01.565,-0.07,
11-02-1997 06:13:15.600,31815680,30-07-2024 18:03:01.565,-0.06,
11-02-1997 06:13:15.600,31815680,30-07-2024 18:03:01.565,-0.06,
11-02-1997 06:13:15.600,31815680,30-07-2024 18:03:01.565,-0.06,
11-02-1997 06:13:15.600,31815680,30-07-2024 18:03:01.565,-0.06,
11-02-1997 06:13:15.600,31815680,30-07-2024 18:03:01.565,-0.07,
11-02-1997 06:13:15.600,31815680,30-07-2024 18:03:01.565,-0.07,
11-02-1997 06:13:15.600,31815680,30-07-2024 18:03:01.565,-0.07,
11-02-1997 06:13:15.600,31815680,30-07-2024 18:03:01.565,-0.07,
11-02-1997 06:13:15.600,31815680,30-07-2024 18:03:01.565,-0.07,
11-02-1997 06:13:15.600,31815680,30-07-2024 18:03:01.565,-0.07,
11-02-1997 06:13:15.600,31815680,30-07-2024 18:03:01.565,-0.06,
11-02-1997 06:13:15.600,31815680,30-07-2024 18:03:01.565,-0.06,
11-02-1997 06:13:15.600,31815680,30-07-2024 18:03:01.565,-0.06,
11-02-1997 06:13:15.600,31815680,30-07-2024 18:03:01.565,-0.06,
11-02-1997 06:13:15.600,31815680,30-07-2024 18:03:01.565,-0.07,
11-02-1997 06:13:15.600,31815680,30-07-2024 18:03:01.565,-0.06,
11-02-1997 06:13:15.600,31815680,30-07-2024 18:03:01.565,-0.06,
11-02-1997 06:13:15.600,31815680,30-07-2024 18:03:01.565,-0.06,
11-02-1997 06:13:15.600,31815680,30-07-2024 18:03:01.565,-0.06,
11-02-1997 06:13:15.600,31815680,30-07-2024 18:03:01.565,-0.06,
11-02-1997 06:13:15.600,31815680,30-07-2024 18:03:01.565,-0.06,
11-02-1997 06:13:15.600,31815680,30-07-2024 18:03:01.565,-0.06,
11-02-1997 06:13:15.600,31815680,30-07-2024 18:03:01.565,-0.06,
11-02-1997 06:13:15.600,31815680,30-07-2024 18:03:01.565,-0.06,
11-02-1997 06:13:15.600,31815680,30-07-2024 18:03:01.565,-0.06,
11-02-1997 06:13:15.600,31815680,30-07-2024 18:03:01.565,-0.06,
11-02-1997 06:13:15.600,31815680,30-07-2024 18:03:01.565,-0.05,
11-02-1997 06:13:15.600,31815680,30-07-2024 18:03:01.565,-0.05,
11-02-1997 06:13:15.600,31815680,30-07-2024 18:03:01.565,-0.06,
11-02-1997 06:13:15.600,31815680,30-07-2024 18:03:01.565,-0.06,
11-02-1997 06:13:15.600,31815680,30-07-2024 18:03:01.565,-0.06,
11-02-1997 06:13:15.600,31815680,30-07-2024 18:03:01.565,-0.06,
11-02-1997 06:13:15.600,31815680,30-07-2024 18:03:01.565,-0.06,
11-02-1997 06:13:15.600,31815680,30-07-2024 18:03:01.565,-0.06,
11-02-1997 06:13:15.600,31815680,30-07-2024 18:03:01.565,-0.05,
11-02-1997 06:13:15.600,31815680,30-07-2024 18:03:01.565,-0.05,
11-02-1997 06:13:15.600,31815680,30-07-2024 18:03:01.565,-0.05,
11-02-1997 06:13:15.600,31815680,30-07-2024 18:03:01.565,-0.05,
11-02-1997 06:13:15.600,31815680,30-07-2024 18:03:01.565,-0.05,
11-02-1997 06:13:15.600,31815680,30-07-2024 18:03:01.565,-0.05,
11-02-1997 06:13:15.600,31815680,30-07-2024 18:03:01.565,-0.05,
11-02-1997 06:13:15.600,31815680,30-07-2024 18:03:01.565,-0.06,
11-02-1997 06:13:15.600,31815680,30-07-2024 18:03:01.565,-0.06,
11-02-1997 06:13:15.600,31815680,30-07-2024 18:03:01.565,-0.05,
11-02-1997 06:13:15.600,31815680,30-07-2024 18:03:01.565,-0.05,
11-02-1997 06:13:15.600,31815680,30-07-2024 18:03:01.565,-0.05,
11-02-1997 06:13:15.600,31815680,30-07-2024 18:03:01.565,-0.06,
11-02-1997 06:13:15.600,31815680,30-07-2024 18:03:01.565,-0.05,
11-02-1997 06:13:15.600,31815680,30-07-2024 18:03:01.565,-0.05,
11-02-1997 06:13:15.600,31815680,30-07-2024 18:03:01.565,-0.05,
11-02-1997 06:13:15.600,31815680,30-07-2024 18:03:01.565,-0.04,
11-02-1997 06:13:15.600,31815680,30-07-2024 18:03:01.565,-0.05,
11-02-1997 06:13:15.600,31815680,30-07-2024 18:03:01.565,-0.05,
11-02-1997 06:13:15.600,31815680,30-07-2024 18:03:01.565,-0.05,
11-02-1997 06:13:15.600,31815680,30-07-2024 18:03:01.565,-0.05,
11-02-1997 06:13:15.600,31815680,30-07-2024 18:03:01.565,-0.05,
11-02-1997 06:13:15.600,31815680,30-07-2024 18:03:01.565,-0.05,
11-02-1997 06:13:15.600,31815680,30-07-2024 18:03:01.565,-0.05,
11-02-1997 06:13:15.600,31815680,30-07-2024 18:03:01.565,-0.05,
11-02-1997 06:13:15.600,31815680,30-07-2024 18:03:01.565,-0.05,
11-02-1997 06:13:15.600,31815680,30-07-2024 18:03:01.565,-0.05,
11-02-1997 06:13:15.600,31815680,30-07-2024 18:03:01.565,-0.06,
11-02-1997 06:13:15.600,31815680,30-07-2024 18:03:01.565,-0.05,
11-02-1997 06:13:15.600,31815680,30-07-2024 18:03:01.565,-0.05,
11-02-1997 06:13:15.600,31815680,30-07-2024 18:03:01.565,-0.05,
11-02-1997 06:13:15.600,31815680,30-07-2024 18:03:01.565,-0.05,
11-02-1997 06:13:15.600,31815680,30-07-2024 18:03:01.565,-0.05,
11-02-1997 06:13:15.600,31815680,30-07-2024 18:03:01.565,-0.06,
11-02-1997 06:13:15.600,31815680,30-07-2024 18:03:01.565,-0.06,
11-02-1997 06:13:15.600,31815680,30-07-2024 18:03:01.565,-0.06,
11-02-1997 06:13:15.600,31815680,30-07-2024 18:03:01.565,-0.06,
11-02-1997 06:13:15.600,31815680,30-07-2024 18:03:01.565,-0.05,
11-02-1997 06:13:15.600,31815680,30-07-2024 18:03:01.565,-0.05,
11-02-1997 06:13:15.600,31815680,30-07-2024 18:03:01.565,-0.05,
11-02-1997 06:13:15.600,31815680,30-07-2024 18:03:01.565,-0.05,
11-02-1997 06:13:15.600,31815680,30-07-2024 18:03:01.565,-0.05,
11-02-1997 06:13:15.600,31815680,30-07-2024 18:03:01.565,-0.05,
11-02-1997 06:13:15.600,31815680,30-07-2024 18:03:01.565,-0.05,
11-02-1997 06:13:15.600,31815680,30-07-2024 18:03:01.565,-0.05,
11-02-1997 06:13:15.600,31815680,30-07-2024 18:03:01.565,-0.05,
11-02-1997 06:13:15.600,31815680,30-07-2024 18:03:01.565,-0.05,
11-02-1997 06:13:15.600,31815680,30-07-2024 18:03:01.565,-0.05,
11-02-1997 06:13:15.600,31815680,30-07-2024 18:03:01.565,-0.04,
11-02-1997 06:13:15.600,31815680,30-07-2024 18:03:01.565,-0.05,
11-02-1997 06:13:15.600,31815680,30-07-2024 18:03:01.565,-0.05,
11-02-1997 06:13:15.600,31815680,30-07-2024 18:03:01.565,-0.04,
11-02-1997 06:13:15.600,31815680,30-07-2024 18:03:01.565,-0.05,
11-02-1997 06:13:15.600,31815680,30-07-2024 18:03:01.565,-0.04,
11-02-1997 06:13:15.600,31815680,30-07-2024 18:03:01.565,-0.03,
11-02-1997 06:13:15.600,31815680,30-07-2024 18:03:01.565,-0.03,
11-02-1997 06:13:15.600,31815680,30-07-2024 18:03:01.565,-0.02,
11-02-1997 06:13:15.600,31815680,30-07-2024 18:03:01.565,-0.02,
11-02-1997 06:13:15.600,31815680,30-07-2024 18:03:01.565,-0.01,
11-02-1997 06:13:15.600,31815680,30-07-2024 18:03:01.565,0,
11-02-1997 06:13:15.600,31815680,30-07-2024 18:03:01.565,0.01,
11-02-1997 06:13:15.600,31815680,30-07-2024 18:03:01.565,0.01,
11-02-1997 06:13:15.600,31815680,30-07-2024 18:03:01.565,0.02,
11-02-1997 06:13:15.600,31815680,30-07-2024 18:03:01.565,0.02,
11-02-1997 06:13:15.600,31815680,30-07-2024 18:03:01.565,0.03,
11-02-1997 06:13:15.600,31815680,30-07-2024 18:03:01.565,0.04,
11-02-1997 06:13:15.600,31815680,30-07-2024 18:03:01.565,0.04,
11-02-1997 06:13:15.600,31815680,30-07-2024 18:03:01.565,0.04,
11-02-1997 06:13:15.600,31815680,30-07-2024 18:03:01.565,0.06,
11-02-1997 06:13:15.600,31815680,30-07-2024 18:03:01.565,0.06,
11-02-1997 06:13:15.600,31815680,30-07-2024 18:03:01.565,0.05,
11-02-1997 06:13:15.600,31815680,30-07-2024 18:03:01.565,0.05,
11-02-1997 06:13:15.600,31815680,30-07-2024 18:03:01.565,0.05,
11-02-1997 06:13:15.600,31815680,30-07-2024 18:03:01.565,0.05,
11-02-1997 06:13:15.600,31815680,30-07-2024 18:03:01.565,0.04,
11-02-1997 06:13:15.600,31815680,30-07-2024 18:03:01.565,0.04,
11-02-1997 06:13:15.600,31815680,30-07-2024 18:03:01.565,0.05,
11-02-1997 06:13:15.600,31815680,30-07-2024 18:03:01.565,0.05,
11-02-1997 06:13:15.600,31815680,30-07-2024 18:03:01.565,0.05,
11-02-1997 06:13:15.600,31815680,30-07-2024 18:03:01.565,0.04,
11-02-1997 06:13:15.600,31815680,30-07-2024 18:03:01.565,0.04,
11-02-1997 06:13:15.600,31815680,30-07-2024 18:03:01.565,0.03,
11-02-1997 06:13:15.856,31817728,30-07-2024 18:03:01.567,0.02,
11-02-1997 06:13:15.856,31817728,30-07-2024 18:03:01.567,0.01,
11-02-1997 06:13:15.856,31817728,30-07-2024 18:03:01.567,0.01,
11-02-1997 06:13:15.856,31817728,30-07-2024 18:03:01.567,0,
11-02-1997 06:13:15.856,31817728,30-07-2024 18:03:01.567,-0.01,
11-02-1997 06:13:15.856,31817728,30-07-2024 18:03:01.567,-0.02,
11-02-1997 06:13:15.856,31817728,30-07-2024 18:03:01.567,-0.02,
11-02-1997 06:13:15.856,31817728,30-07-2024 18:03:01.567,-0.03,
11-02-1997 06:13:15.856,31817728,30-07-2024 18:03:01.567,-0.03,
11-02-1997 06:13:15.856,31817728,30-07-2024 18:03:01.567,-0.04,
11-02-1997 06:13:15.856,31817728,30-07-2024 18:03:01.567,-0.04,
11-02-1997 06:13:15.856,31817728,30-07-2024 18:03:01.567,-0.05,
11-02-1997 06:13:15.856,31817728,30-07-2024 18:03:01.567,-0.05,
11-02-1997 06:13:15.856,31817728,30-07-2024 18:03:01.567,-0.05,
11-02-1997 06:13:15.856,31817728,30-07-2024 18:03:01.567,-0.04,
11-02-1997 06:13:15.856,31817728,30-07-2024 18:03:01.567,-0.04,
11-02-1997 06:13:15.856,31817728,30-07-2024 18:03:01.567,-0.04,
11-02-1997 06:13:15.856,31817728,30-07-2024 18:03:01.567,-0.04,
11-02-1997 06:13:15.856,31817728,30-07-2024 18:03:01.567,-0.05,
11-02-1997 06:13:15.856,31817728,30-07-2024 18:03:01.567,-0.05,
11-02-1997 06:13:15.856,31817728,30-07-2024 18:03:01.567,-0.05,
11-02-1997 06:13:15.856,31817728,30-07-2024 18:03:01.567,-0.04,
11-02-1997 06:13:15.856,31817728,30-07-2024 18:03:01.567,-0.04,
11-02-1997 06:13:15.856,31817728,30-07-2024 18:03:01.567,-0.05,
11-02-1997 06:13:15.856,31817728,30-07-2024 18:03:01.567,-0.05,
11-02-1997 06:13:15.856,31817728,30-07-2024 18:03:01.567,-0.04,
11-02-1997 06:13:15.856,31817728,30-07-2024 18:03:01.567,-0.04,
11-02-1997 06:13:15.856,31817728,30-07-2024 18:03:01.567,-0.04,
11-02-1997 06:13:15.856,31817728,30-07-2024 18:03:01.567,-0.04,
11-02-1997 06:13:15.856,31817728,30-07-2024 18:03:01.567,-0.04,
11-02-1997 06:13:15.856,31817728,30-07-2024 18:03:01.567,-0.04,
11-02-1997 06:13:15.856,31817728,30-07-2024 18:03:01.567,-0.04,
11-02-1997 06:13:15.856,31817728,30-07-2024 18:03:01.567,-0.03,
11-02-1997 06:13:15.856,31817728,30-07-2024 18:03:01.567,-0.03,
11-02-1997 06:13:15.856,31817728,30-07-2024 18:03:01.567,-0.04,
11-02-1997 06:13:15.856,31817728,30-07-2024 18:03:01.567,-0.04,
11-02-1997 06:13:15.856,31817728,30-07-2024 18:03:01.567,-0.03,
11-02-1997 06:13:15.856,31817728,30-07-2024 18:03:01.567,-0.03,
11-02-1997 06:13:15.856,31817728,30-07-2024 18:03:01.567,-0.04,
11-02-1997 06:13:15.856,31817728,30-07-2024 18:03:01.567,-0.04,
11-02-1997 06:13:15.856,31817728,30-07-2024 18:03:01.567,-0.03,
11-02-1997 06:13:15.856,31817728,30-07-2024 18:03:01.567,-0.04,
11-02-1997 06:13:15.856,31817728,30-07-2024 18:03:01.567,-0.04,
11-02-1997 06:13:15.856,31817728,30-07-2024 18:03:01.567,-0.04,
11-02-1997 06:13:15.856,31817728,30-07-2024 18:03:01.567,-0.04,
11-02-1997 06:13:15.856,31817728,30-07-2024 18:03:01.567,-0.04,
11-02-1997 06:13:15.856,31817728,30-07-2024 18:03:01.567,-0.04,
11-02-1997 06:13:15.856,31817728,30-07-2024 18:03:01.567,-0.03,
11-02-1997 06:13:15.856,31817728,30-07-2024 18:03:01.567,-0.03,
11-02-1997 06:13:15.856,31817728,30-07-2024 18:03:01.567,-0.04,
11-02-1997 06:13:15.856,31817728,30-07-2024 18:03:01.567,-0.05,
11-02-1997 06:13:15.856,31817728,30-07-2024 18:03:01.567,-0.06,
11-02-1997 06:13:15.856,31817728,30-07-2024 18:03:01.567,-0.09,
11-02-1997 06:13:15.856,31817728,30-07-2024 18:03:01.567,-0.11,
11-02-1997 06:13:15.856,31817728,30-07-2024 18:03:01.567,-0.14,
11-02-1997 06:13:15.856,31817728,30-07-2024 18:03:01.567,-0.15,
11-02-1997 06:13:15.856,31817728,30-07-2024 18:03:01.567,-0.14,
11-02-1997 06:13:15.856,31817728,30-07-2024 18:03:01.567,-0.13,
11-02-1997 06:13:15.856,31817728,30-07-2024 18:03:01.567,-0.1,
11-02-1997 06:13:15.856,31817728,30-07-2024 18:03:01.567,-0.05,
11-02-1997 06:13:15.856,31817728,30-07-2024 18:03:01.567,0.03,
11-02-1997 06:13:15.856,31817728,30-07-2024 18:03:01.567,0.11,
11-02-1997 06:13:15.856,31817728,30-07-2024 18:03:01.567,0.19,
11-02-1997 06:13:15.856,31817728,30-07-2024 18:03:01.567,0.27,
11-02-1997 06:13:15.856,31817728,30-07-2024 18:03:01.567,0.36,
11-02-1997 06:13:15.856,31817728,30-07-2024 18:03:01.567,0.45,
11-02-1997 06:13:15.856,31817728,30-07-2024 18:03:01.567,0.54,
11-02-1997 06:13:15.856,31817728,30-07-2024 18:03:01.567,0.59,
11-02-1997 06:13:15.856,31817728,30-07-2024 18:03:01.567,0.62,
11-02-1997 06:13:15.856,31817728,30-07-2024 18:03:01.567,0.62,
11-02-1997 06:13:15.856,31817728,30-07-2024 18:03:01.567,0.6,
11-02-1997 06:13:15.856,31817728,30-07-2024 18:03:01.567,0.54,
11-02-1997 06:13:15.856,31817728,30-07-2024 18:03:01.567,0.49,
11-02-1997 06:13:15.856,31817728,30-07-2024 18:03:01.567,0.42,
11-02-1997 06:13:15.856,31817728,30-07-2024 18:03:01.567,0.33,
11-02-1997 06:13:15.856,31817728,30-07-2024 18:03:01.567,0.24,
11-02-1997 06:13:15.856,31817728,30-07-2024 18:03:01.567,0.15,
11-02-1997 06:13:15.856,31817728,30-07-2024 18:03:01.567,0.07,
11-02-1997 06:13:15.856,31817728,30-07-2024 18:03:01.567,0.02,
11-02-1997 06:13:15.856,31817728,30-07-2024 18:03:01.567,-0.03,
11-02-1997 06:13:15.856,31817728,30-07-2024 18:03:01.567,-0.07,
11-02-1997 06:13:15.856,31817728,30-07-2024 18:03:01.567,-0.1,
11-02-1997 06:13:15.856,31817728,30-07-2024 18:03:01.567,-0.12,
11-02-1997 06:13:15.856,31817728,30-07-2024 18:03:01.567,-0.14,
11-02-1997 06:13:15.856,31817728,30-07-2024 18:03:01.567,-0.14,
11-02-1997 06:13:15.856,31817728,30-07-2024 18:03:01.567,-0.12,
11-02-1997 06:13:15.856,31817728,30-07-2024 18:03:01.567,-0.1,
11-02-1997 06:13:15.856,31817728,30-07-2024 18:03:01.567,-0.09,
11-02-1997 06:13:15.856,31817728,30-07-2024 18:03:01.567,-0.08,
11-02-1997 06:13:15.856,31817728,30-07-2024 18:03:01.567,-0.08,
11-02-1997 06:13:15.856,31817728,30-07-2024 18:03:01.567,-0.07,
11-02-1997 06:13:15.856,31817728,30-07-2024 18:03:01.567,-0.08,
11-02-1997 06:13:15.856,31817728,30-07-2024 18:03:01.567,-0.07,
11-02-1997 06:13:15.856,31817728,30-07-2024 18:03:01.567,-0.07,
11-02-1997 06:13:15.856,31817728,30-07-2024 18:03:01.567,-0.07,
11-02-1997 06:13:15.856,31817728,30-07-2024 18:03:01.567,-0.07,
11-02-1997 06:13:15.856,31817728,30-07-2024 18:03:01.567,-0.07,
11-02-1997 06:13:15.856,31817728,30-07-2024 18:03:01.567,-0.06,
11-02-1997 06:13:15.856,31817728,30-07-2024 18:03:01.567,-0.06,
11-02-1997 06:13:15.856,31817728,30-07-2024 18:03:01.567,-0.06,
11-02-1997 06:13:15.856,31817728,30-07-2024 18:03:01.567,-0.06,
11-02-1997 06:13:15.856,31817728,30-07-2024 18:03:01.567,-0.06,
11-02-1997 06:13:15.856,31817728,30-07-2024 18:03:01.567,-0.06,
11-02-1997 06:13:15.856,31817728,30-07-2024 18:03:01.567,-0.06,
11-02-1997 06:13:15.856,31817728,30-07-2024 18:03:01.567,-0.06,
11-02-1997 06:13:15.856,31817728,30-07-2024 18:03:01.567,-0.06,
11-02-1997 06:13:15.856,31817728,30-07-2024 18:03:01.567,-0.06,
11-02-1997 06:13:15.856,31817728,30-07-2024 18:03:01.567,-0.06,
11-02-1997 06:13:15.856,31817728,30-07-2024 18:03:01.567,-0.06,
11-02-1997 06:13:15.856,31817728,30-07-2024 18:03:01.567,-0.06,
11-02-1997 06:13:15.856,31817728,30-07-2024 18:03:01.567,-0.06,
11-02-1997 06:13:15.856,31817728,30-07-2024 18:03:01.567,-0.06,
11-02-1997 06:13:15.856,31817728,30-07-2024 18:03:01.567,-0.06,
11-02-1997 06:13:15.856,31817728,30-07-2024 18:03:01.567,-0.05,
11-02-1997 06:13:15.856,31817728,30-07-2024 18:03:01.567,-0.05,
11-02-1997 06:13:15.856,31817728,30-07-2024 18:03:01.567,-0.06,
11-02-1997 06:13:15.856,31817728,30-07-2024 18:03:01.567,-0.06,
11-02-1997 06:13:15.856,31817728,30-07-2024 18:03:01.567,-0.05,
11-02-1997 06:13:15.856,31817728,30-07-2024 18:03:01.567,-0.06,
11-02-1997 06:13:15.856,31817728,30-07-2024 18:03:01.567,-0.06,
11-02-1997 06:13:15.856,31817728,30-07-2024 18:03:01.567,-0.05,
11-02-1997 06:13:15.856,31817728,30-07-2024 18:03:01.567,-0.05,
11-02-1997 06:13:15.856,31817728,30-07-2024 18:03:01.567,-0.06,
11-02-1997 06:13:15.856,31817728,30-07-2024 18:03:01.567,-0.05,
11-02-1997 06:13:15.856,31817728,30-07-2024 18:03:01.567,-0.06,
11-02-1997 06:13:15.856,31817728,30-07-2024 18:03:01.567,-0.06,
11-02-1997 06:13:15.856,31817728,30-07-2024 18:03:01.567,-0.06,
11-02-1997 06:13:15.856,31817728,30-07-2024 18:03:01.567,-0.06,
11-02-1997 06:13:16.112,31819776,30-07-2024 18:03:01.570,-0.06,
11-02-1997 06:13:16.112,31819776,30-07-2024 18:03:01.570,-0.06,
11-02-1997 06:13:16.112,31819776,30-07-2024 18:03:01.570,-0.05,
11-02-1997 06:13:16.112,31819776,30-07-2024 18:03:01.570,-0.05,
11-02-1997 06:13:16.112,31819776,30-07-2024 18:03:01.570,-0.06,
11-02-1997 06:13:16.112,31819776,30-07-2024 18:03:01.570,-0.06,
11-02-1997 06:13:16.112,31819776,30-07-2024 18:03:01.570,-0.06,
11-02-1997 06:13:16.112,31819776,30-07-2024 18:03:01.570,-0.06,
11-02-1997 06:13:16.112,31819776,30-07-2024 18:03:01.570,-0.06,
11-02-1997 06:13:16.112,31819776,30-07-2024 18:03:01.570,-0.06,
11-02-1997 06:13:16.112,31819776,30-07-2024 18:03:01.570,-0.05,
11-02-1997 06:13:16.112,31819776,30-07-2024 18:03:01.570,-0.05,
11-02-1997 06:13:16.112,31819776,30-07-2024 18:03:01.570,-0.05,
11-02-1997 06:13:16.112,31819776,30-07-2024 18:03:01.570,-0.05,
11-02-1997 06:13:16.112,31819776,30-07-2024 18:03:01.570,-0.06,
11-02-1997 06:13:16.112,31819776,30-07-2024 18:03:01.570,-0.06,
11-02-1997 06:13:16.112,31819776,30-07-2024 18:03:01.570,-0.06,
11-02-1997 06:13:16.112,31819776,30-07-2024 18:03:01.570,-0.05,
11-02-1997 06:13:16.112,31819776,30-07-2024 18:03:01.570,-0.05,
11-02-1997 06:13:16.112,31819776,30-07-2024 18:03:01.570,-0.05,
11-02-1997 06:13:16.112,31819776,30-07-2024 18:03:01.570,-0.05,
11-02-1997 06:13:16.112,31819776,30-07-2024 18:03:01.570,-0.03,
11-02-1997 06:13:16.112,31819776,30-07-2024 18:03:01.570,-0.03,
11-02-1997 06:13:16.112,31819776,30-07-2024 18:03:01.570,-0.02,
11-02-1997 06:13:16.112,31819776,30-07-2024 18:03:01.570,-0.02,
11-02-1997 06:13:16.112,31819776,30-07-2024 18:03:01.570,-0.01,
11-02-1997 06:13:16.112,31819776,30-07-2024 18:03:01.570,-0.01,
11-02-1997 06:13:16.112,31819776,30-07-2024 18:03:01.570,0,
11-02-1997 06:13:16.112,31819776,30-07-2024 18:03:01.570,0.01,
11-02-1997 06:13:16.112,31819776,30-07-2024 18:03:01.570,0.01,
11-02-1997 06:13:16.112,31819776,30-07-2024 18:03:01.570,0.02,
11-02-1997 06:13:16.112,31819776,30-07-2024 18:03:01.570,0.03,
11-02-1997 06:13:16.112,31819776,30-07-2024 18:03:01.570,0.03,
11-02-1997 06:13:16.112,31819776,30-07-2024 18:03:01.570,0.04,
11-02-1997 06:13:16.112,31819776,30-07-2024 18:03:01.570,0.06,
11-02-1997 06:13:16.112,31819776,30-07-2024 18:03:01.570,0.06,
11-02-1997 06:13:16.112,31819776,30-07-2024 18:03:01.570,0.06,
11-02-1997 06:13:16.112,31819776,30-07-2024 18:03:01.570,0.07,
11-02-1997 06:13:16.112,31819776,30-07-2024 18:03:01.570,0.07,
11-02-1997 06:13:16.112,31819776,30-07-2024 18:03:01.570,0.07,
11-02-1997 06:13:16.112,31819776,30-07-2024 18:03:01.570,0.08,
11-02-1997 06:13:16.112,31819776,30-07-2024 18:03:01.570,0.09,
11-02-1997 06:13:16.112,31819776,30-07-2024 18:03:01.570,0.11,
11-02-1997 06:13:16.112,31819776,30-07-2024 18:03:01.570,0.12,
11-02-1997 06:13:16.112,31819776,30-07-2024 18:03:01.570,0.12,
11-02-1997 06:13:16.112,31819776,30-07-2024 18:03:01.570,0.12,
11-02-1997 06:13:16.112,31819776,30-07-2024 18:03:01.570,0.13,
11-02-1997 06:13:16.112,31819776,30-07-2024 18:03:01.570,0.14,
11-02-1997 06:13:16.112,31819776,30-07-2024 18:03:01.570,0.13,
11-02-1997 06:13:16.112,31819776,30-07-2024 18:03:01.570,0.14,
11-02-1997 06:13:16.112,31819776,30-07-2024 18:03:01.570,0.14,
11-02-1997 06:13:16.112,31819776,30-07-2024 18:03:01.570,0.15,
11-02-1997 06:13:16.112,31819776,30-07-2024 18:03:01.570,0.14,
11-02-1997 06:13:16.112,31819776,30-07-2024 18:03:01.570,0.14,
11-02-1997 06:13:16.112,31819776,30-07-2024 18:03:01.570,0.14,
11-02-1997 06:13:16.112,31819776,30-07-2024 18:03:01.570,0.15,
11-02-1997 06:13:16.112,31819776,30-07-2024 18:03:01.570,0.15,
11-02-1997 06:13:16.112,31819776,30-07-2024 18:03:01.570,0.15,
11-02-1997 06:13:16.112,31819776,30-07-2024 18:03:01.570,0.15,
11-02-1997 06:13:16.112,31819776,30-07-2024 18:03:01.570,0.15,
11-02-1997 06:13:16.112,31819776,30-07-2024 18:03:01.570,0.15,
11-02-1997 06:13:16.112,31819776,30-07-2024 18:03:01.570,0.15,
11-02-1997 06:13:16.112,31819776,30-07-2024 18:03:01.570,0.15,
11-02-1997 06:13:16.112,31819776,30-07-2024 18:03:01.570,0.14,
11-02-1997 06:13:16.112,31819776,30-07-2024 18:03:01.570,0.14,
11-02-1997 06:13:16.112,31819776,30-07-2024 18:03:01.570,0.14,
11-02-1997 06:13:16.112,31819776,30-07-2024 18:03:01.570,0.14,
11-02-1997 06:13:16.112,31819776,30-07-2024 18:03:01.570,0.13,
11-02-1997 06:13:16.112,31819776,30-07-2024 18:03:01.570,0.13,
11-02-1997 06:13:16.112,31819776,30-07-2024 18:03:01.570,0.12,
11-02-1997 06:13:16.112,31819776,30-07-2024 18:03:01.570,0.12,
11-02-1997 06:13:16.112,31819776,30-07-2024 18:03:01.570,0.11,
11-02-1997 06:13:16.112,31819776,30-07-2024 18:03:01.570,0.11,
11-02-1997 06:13:16.112,31819776,30-07-2024 18:03:01.570,0.11,
11-02-1997 06:13:16.112,31819776,30-07-2024 18:03:01.570,0.09,
11-02-1997 06:13:16.112,31819776,30-07-2024 18:03:01.570,0.09,
11-02-1997 06:13:16.112,31819776,30-07-2024 18:03:01.570,0.08,
11-02-1997 06:13:16.112,31819776,30-07-2024 18:03:01.570,0.08,
11-02-1997 06:13:16.112,31819776,30-07-2024 18:03:01.570,0.07,
11-02-1997 06:13:16.112,31819776,30-07-2024 18:03:01.570,0.06,
11-02-1997 06:13:16.112,31819776,30-07-2024 18:03:01.570,0.06,
11-02-1997 06:13:16.112,31819776,30-07-2024 18:03:01.570,0.06,
11-02-1997 06:13:16.112,31819776,30-07-2024 18:03:01.570,0.04,
11-02-1997 06:13:16.112,31819776,30-07-2024 18:03:01.570,0.04,
11-02-1997 06:13:16.112,31819776,30-07-2024 18:03:01.570,0.03,
11-02-1997 06:13:16.112,31819776,30-07-2024 18:03:01.570,0.02,
11-02-1997 06:13:16.112,31819776,30-07-2024 18:03:01.570,0.02,
11-02-1997 06:13:16.112,31819776,30-07-2024 18:03:01.570,0.01,
11-02-1997 06:13:16.112,31819776,30-07-2024 18:03:01.570,-0,
11-02-1997 06:13:16.112,31819776,30-07-2024 18:03:01.570,-0,
11-02-1997 06:13:16.112,31819776,30-07-2024 18:03:01.570,-0.01,
11-02-1997 06:13:16.112,31819776,30-07-2024 18:03:01.570,-0.02,
11-02-1997 06:13:16.112,31819776,30-07-2024 18:03:01.570,-0.03,
11-02-1997 06:13:16.112,31819776,30-07-2024 18:03:01.570,-0.03,
11-02-1997 06:13:16.112,31819776,30-07-2024 18:03:01.570,-0.04,
11-02-1997 06:13:16.112,31819776,30-07-2024 18:03:01.570,-0.04,
11-02-1997 06:13:16.112,31819776,30-07-2024 18:03:01.570,-0.05,
11-02-1997 06:13:16.112,31819776,30-07-2024 18:03:01.570,-0.05,
11-02-1997 06:13:16.112,31819776,30-07-2024 18:03:01.570,-0.06,
11-02-1997 06:13:16.112,31819776,30-07-2024 18:03:01.570,-0.07,
11-02-1997 06:13:16.112,31819776,30-07-2024 18:03:01.570,-0.07,
11-02-1997 06:13:16.112,31819776,30-07-2024 18:03:01.570,-0.08,
11-02-1997 06:13:16.112,31819776,30-07-2024 18:03:01.570,-0.09,
11-02-1997 06:13:16.112,31819776,30-07-2024 18:03:01.570,-0.08,
11-02-1997 06:13:16.112,31819776,30-07-2024 18:03:01.570,-0.09,
11-02-1997 06:13:16.112,31819776,30-07-2024 18:03:01.570,-0.09,
11-02-1997 06:13:16.112,31819776,30-07-2024 18:03:01.570,-0.08,
11-02-1997 06:13:16.112,31819776,30-07-2024 18:03:01.570,-0.08,
11-02-1997 06:13:16.112,31819776,30-07-2024 18:03:01.570,-0.08,
11-02-1997 06:13:16.112,31819776,30-07-2024 18:03:01.570,-0.08,
11-02-1997 06:13:16.112,31819776,30-07-2024 18:03:01.570,-0.09,
11-02-1997 06:13:16.112,31819776,30-07-2024 18:03:01.570,-0.09,
11-02-1997 06:13:16.112,31819776,30-07-2024 18:03:01.570,-0.09,
11-02-1997 06:13:16.112,31819776,30-07-2024 18:03:01.570,-0.08,
11-02-1997 06:13:16.112,31819776,30-07-2024 18:03:01.570,-0.08,
11-02-1997 06:13:16.112,31819776,30-07-2024 18:03:01.570,-0.08,
11-02-1997 06:13:16.112,31819776,30-07-2024 18:03:01.570,-0.08,
11-02-1997 06:13:16.112,31819776,30-07-2024 18:03:01.570,-0.08,
11-02-1997 06:13:16.112,31819776,30-07-2024 18:03:01.570,-0.08,
11-02-1997 06:13:16.112,31819776,30-07-2024 18:03:01.570,-0.08,
11-02-1997 06:13:16.112,31819776,30-07-2024 18:03:01.570,-0.08,
11-02-1997 06:13:16.112,31819776,30-07-2024 18:03:01.570,-0.07,
11-02-1997 06:13:16.112,31819776,30-07-2024 18:03:01.570,-0.07,
11-02-1997 06:13:16.112,31819776,30-07-2024 18:03:01.570,-0.07,
11-02-1997 06:13:16.112,31819776,30-07-2024 18:03:01.570,-0.07,
11-02-1997 06:13:16.112,31819776,30-07-2024 18:03:01.570,-0.07,
11-02-1997 06:13:16.112,31819776,30-07-2024 18:03:01.570,-0.07,
11-02-1997 06:13:16.112,31819776,30-07-2024 18:03:01.570,-0.07,
11-02-1997 06:13:16.368,31821824,30-07-2024 18:03:01.572,-0.07,
11-02-1997 06:13:16.368,31821824,30-07-2024 18:03:01.572,-0.07,
11-02-1997 06:13:16.368,31821824,30-07-2024 18:03:01.572,-0.07,
11-02-1997 06:13:16.368,31821824,30-07-2024 18:03:01.572,-0.06,
11-02-1997 06:13:16.368,31821824,30-07-2024 18:03:01.572,-0.07,
11-02-1997 06:13:16.368,31821824,30-07-2024 18:03:01.572,-0.07,
11-02-1997 06:13:16.368,31821824,30-07-2024 18:03:01.572,-0.07,
11-02-1997 06:13:16.368,31821824,30-07-2024 18:03:01.572,-0.07,
11-02-1997 06:13:16.368,31821824,30-07-2024 18:03:01.572,-0.07,
11-02-1997 06:13:16.368,31821824,30-07-2024 18:03:01.572,-0.07,
11-02-1997 06:13:16.368,31821824,30-07-2024 18:03:01.572,-0.07,
11-02-1997 06:13:16.368,31821824,30-07-2024 18:03:01.572,-0.06,
11-02-1997 06:13:16.368,31821824,30-07-2024 18:03:01.572,-0.06,
11-02-1997 06:13:16.368,31821824,30-07-2024 18:03:01.572,-0.07,
11-02-1997 06:13:16.368,31821824,30-07-2024 18:03:01.572,-0.07,
11-02-1997 06:13:16.368,31821824,30-07-2024 18:03:01.572,-0.06,
11-02-1997 06:13:16.368,31821824,30-07-2024 18:03:01.572,-0.06,
11-02-1997 06:13:16.368,31821824,30-07-2024 18:03:01.572,-0.06,
11-02-1997 06:13:16.368,31821824,30-07-2024 18:03:01.572,-0.06,
11-02-1997 06:13:16.368,31821824,30-07-2024 18:03:01.572,-0.06,
11-02-1997 06:13:16.368,31821824,30-07-2024 18:03:01.572,-0.06,
11-02-1997 06:13:16.368,31821824,30-07-2024 18:03:01.572,-0.06,
11-02-1997 06:13:16.368,31821824,30-07-2024 18:03:01.572,-0.06,
11-02-1997 06:13:16.368,31821824,30-07-2024 18:03:01.572,-0.06,
11-02-1997 06:13:16.368,31821824,30-07-2024 18:03:01.572,-0.06,
11-02-1997 06:13:16.368,31821824,30-07-2024 18:03:01.572,-0.06,
11-02-1997 06:13:16.368,31821824,30-07-2024 18:03:01.572,-0.06,
11-02-1997 06:13:16.368,31821824,30-07-2024 18:03:01.572,-0.06,
11-02-1997 06:13:16.368,31821824,30-07-2024 18:03:01.572,-0.06,
11-02-1997 06:13:16.368,31821824,30-07-2024 18:03:01.572,-0.05,
11-02-1997 06:13:16.368,31821824,30-07-2024 18:03:01.572,-0.06,
11-02-1997 06:13:16.368,31821824,30-07-2024 18:03:01.572,-0.06,
11-02-1997 06:13:16.368,31821824,30-07-2024 18:03:01.572,-0.06,
11-02-1997 06:13:16.368,31821824,30-07-2024 18:03:01.572,-0.06,
11-02-1997 06:13:16.368,31821824,30-07-2024 18:03:01.572,-0.06,
11-02-1997 06:13:16.368,31821824,30-07-2024 18:03:01.572,-0.06,
11-02-1997 06:13:16.368,31821824,30-07-2024 18:03:01.572,-0.06,
11-02-1997 06:13:16.368,31821824,30-07-2024 18:03:01.572,-0.07,
11-02-1997 06:13:16.368,31821824,30-07-2024 18:03:01.572,-0.07,
11-02-1997 06:13:16.368,31821824,30-07-2024 18:03:01.572,-0.07,
11-02-1997 06:13:16.368,31821824,30-07-2024 18:03:01.572,-0.07,
11-02-1997 06:13:16.368,31821824,30-07-2024 18:03:01.572,-0.07,
11-02-1997 06:13:16.368,31821824,30-07-2024 18:03:01.572,-0.06,
11-02-1997 06:13:16.368,31821824,30-07-2024 18:03:01.572,-0.06,
11-02-1997 06:13:16.368,31821824,30-07-2024 18:03:01.572,-0.06,
11-02-1997 06:13:16.368,31821824,30-07-2024 18:03:01.572,-0.06,
11-02-1997 06:13:16.368,31821824,30-07-2024 18:03:01.572,-0.06,
11-02-1997 06:13:16.368,31821824,30-07-2024 18:03:01.572,-0.06,
11-02-1997 06:13:16.368,31821824,30-07-2024 18:03:01.572,-0.06,
11-02-1997 06:13:16.368,31821824,30-07-2024 18:03:01.572,-0.05,
11-02-1997 06:13:16.368,31821824,30-07-2024 18:03:01.572,-0.06,
11-02-1997 06:13:16.368,31821824,30-07-2024 18:03:01.572,-0.06,
11-02-1997 06:13:16.368,31821824,30-07-2024 18:03:01.572,-0.06,
11-02-1997 06:13:16.368,31821824,30-07-2024 18:03:01.572,-0.06,
11-02-1997 06:13:16.368,31821824,30-07-2024 18:03:01.572,-0.06,
11-02-1997 06:13:16.368,31821824,30-07-2024 18:03:01.572,-0.06,
11-02-1997 06:13:16.368,31821824,30-07-2024 18:03:01.572,-0.06,
11-02-1997 06:13:16.368,31821824,30-07-2024 18:03:01.572,-0.06,
11-02-1997 06:13:16.368,31821824,30-07-2024 18:03:01.572,-0.05,
11-02-1997 06:13:16.368,31821824,30-07-2024 18:03:01.572,-0.05,
11-02-1997 06:13:16.368,31821824,30-07-2024 18:03:01.572,-0.05,
11-02-1997 06:13:16.368,31821824,30-07-2024 18:03:01.572,-0.05,
11-02-1997 06:13:16.368,31821824,30-07-2024 18:03:01.572,-0.06,
